# QE from  Nieves et al.,PRC 70,055503 (2004) & arXiv:1106.5374 [hep-ph]
# ein (gev) = 0.100E+01
# units diff cross section [10^{-38} cm^2/GeV
# Tlepton (GeV), dsigma/dTlepton, MA(GeV),  RPA (0/1), Eneutrino (GeV)
 0.1885000E-01  0.0000000E+00  0.1049000E+01 1  0.1000000E+01
 0.2770000E-01  0.0000000E+00  0.1049000E+01 1  0.1000000E+01
 0.3655000E-01  0.0000000E+00  0.1049000E+01 1  0.1000000E+01
 0.4540000E-01  0.0000000E+00  0.1049000E+01 1  0.1000000E+01
 0.5425000E-01  0.0000000E+00  0.1049000E+01 1  0.1000000E+01
 0.6310000E-01  0.0000000E+00  0.1049000E+01 1  0.1000000E+01
 0.7195000E-01  0.0000000E+00  0.1049000E+01 1  0.1000000E+01
 0.8080000E-01  0.0000000E+00  0.1049000E+01 1  0.1000000E+01
 0.8965000E-01  0.0000000E+00  0.1049000E+01 1  0.1000000E+01
 0.9850000E-01  0.0000000E+00  0.1049000E+01 1  0.1000000E+01
 0.1073500E+00  0.2018762E-04  0.1049000E+01 1  0.1000000E+01
 0.1162000E+00  0.1819870E+00  0.1049000E+01 1  0.1000000E+01
 0.1250500E+00  0.1004231E+01  0.1049000E+01 1  0.1000000E+01
 0.1339000E+00  0.2580328E+01  0.1049000E+01 1  0.1000000E+01
 0.1427500E+00  0.5132073E+01  0.1049000E+01 1  0.1000000E+01
 0.1516000E+00  0.8692700E+01  0.1049000E+01 1  0.1000000E+01
 0.1604500E+00  0.1321812E+02  0.1049000E+01 1  0.1000000E+01
 0.1693000E+00  0.1863184E+02  0.1049000E+01 1  0.1000000E+01
 0.1781500E+00  0.2456629E+02  0.1049000E+01 1  0.1000000E+01
 0.1870000E+00  0.3058766E+02  0.1049000E+01 1  0.1000000E+01
 0.1958500E+00  0.3658970E+02  0.1049000E+01 1  0.1000000E+01
 0.2047000E+00  0.4267904E+02  0.1049000E+01 1  0.1000000E+01
 0.2135500E+00  0.4884483E+02  0.1049000E+01 1  0.1000000E+01
 0.2224000E+00  0.5498768E+02  0.1049000E+01 1  0.1000000E+01
 0.2312500E+00  0.6099713E+02  0.1049000E+01 1  0.1000000E+01
 0.2401000E+00  0.6680929E+02  0.1049000E+01 1  0.1000000E+01
 0.2489500E+00  0.7241312E+02  0.1049000E+01 1  0.1000000E+01
 0.2578000E+00  0.7772032E+02  0.1049000E+01 1  0.1000000E+01
 0.2666500E+00  0.8279779E+02  0.1049000E+01 1  0.1000000E+01
 0.2755000E+00  0.8759014E+02  0.1049000E+01 1  0.1000000E+01
 0.2843500E+00  0.9208599E+02  0.1049000E+01 1  0.1000000E+01
 0.2932000E+00  0.9632242E+02  0.1049000E+01 1  0.1000000E+01
 0.3020500E+00  0.1003011E+03  0.1049000E+01 1  0.1000000E+01
 0.3109000E+00  0.1039708E+03  0.1049000E+01 1  0.1000000E+01
 0.3197500E+00  0.1074105E+03  0.1049000E+01 1  0.1000000E+01
 0.3286000E+00  0.1106697E+03  0.1049000E+01 1  0.1000000E+01
 0.3374500E+00  0.1136901E+03  0.1049000E+01 1  0.1000000E+01
 0.3463000E+00  0.1166119E+03  0.1049000E+01 1  0.1000000E+01
 0.3551500E+00  0.1194630E+03  0.1049000E+01 1  0.1000000E+01
 0.3640000E+00  0.1223829E+03  0.1049000E+01 1  0.1000000E+01
 0.3728500E+00  0.1253287E+03  0.1049000E+01 1  0.1000000E+01
 0.3817000E+00  0.1283130E+03  0.1049000E+01 1  0.1000000E+01
 0.3905500E+00  0.1313252E+03  0.1049000E+01 1  0.1000000E+01
 0.3994000E+00  0.1343745E+03  0.1049000E+01 1  0.1000000E+01
 0.4082500E+00  0.1374069E+03  0.1049000E+01 1  0.1000000E+01
 0.4171000E+00  0.1404968E+03  0.1049000E+01 1  0.1000000E+01
 0.4259500E+00  0.1435706E+03  0.1049000E+01 1  0.1000000E+01
 0.4348000E+00  0.1465911E+03  0.1049000E+01 1  0.1000000E+01
 0.4436500E+00  0.1496620E+03  0.1049000E+01 1  0.1000000E+01
 0.4525000E+00  0.1527033E+03  0.1049000E+01 1  0.1000000E+01
 0.4613500E+00  0.1557296E+03  0.1049000E+01 1  0.1000000E+01
 0.4702000E+00  0.1587712E+03  0.1049000E+01 1  0.1000000E+01
 0.4790500E+00  0.1618000E+03  0.1049000E+01 1  0.1000000E+01
 0.4879000E+00  0.1648906E+03  0.1049000E+01 1  0.1000000E+01
 0.4967500E+00  0.1677770E+03  0.1049000E+01 1  0.1000000E+01
 0.5056000E+00  0.1711226E+03  0.1049000E+01 1  0.1000000E+01
 0.5144500E+00  0.1741923E+03  0.1049000E+01 1  0.1000000E+01
 0.5233000E+00  0.1775802E+03  0.1049000E+01 1  0.1000000E+01
 0.5321500E+00  0.1811656E+03  0.1049000E+01 1  0.1000000E+01
 0.5410000E+00  0.1844092E+03  0.1049000E+01 1  0.1000000E+01
 0.5498500E+00  0.1885038E+03  0.1049000E+01 1  0.1000000E+01
 0.5587000E+00  0.1922449E+03  0.1049000E+01 1  0.1000000E+01
 0.5675500E+00  0.1958474E+03  0.1049000E+01 1  0.1000000E+01
 0.5764000E+00  0.2007487E+03  0.1049000E+01 1  0.1000000E+01
 0.5852500E+00  0.2045378E+03  0.1049000E+01 1  0.1000000E+01
 0.5941000E+00  0.2087204E+03  0.1049000E+01 1  0.1000000E+01
 0.6029500E+00  0.2138390E+03  0.1049000E+01 1  0.1000000E+01
 0.6118000E+00  0.2182608E+03  0.1049000E+01 1  0.1000000E+01
 0.6206500E+00  0.2221767E+03  0.1049000E+01 1  0.1000000E+01
 0.6295000E+00  0.2276410E+03  0.1049000E+01 1  0.1000000E+01
 0.6383500E+00  0.2327285E+03  0.1049000E+01 1  0.1000000E+01
 0.6472000E+00  0.2368238E+03  0.1049000E+01 1  0.1000000E+01
 0.6560500E+00  0.2414829E+03  0.1049000E+01 1  0.1000000E+01
 0.6649000E+00  0.2477537E+03  0.1049000E+01 1  0.1000000E+01
 0.6737500E+00  0.2520734E+03  0.1049000E+01 1  0.1000000E+01
 0.6826000E+00  0.2557401E+03  0.1049000E+01 1  0.1000000E+01
 0.6914500E+00  0.2619453E+03  0.1049000E+01 1  0.1000000E+01
 0.7003000E+00  0.2673638E+03  0.1049000E+01 1  0.1000000E+01
 0.7091500E+00  0.2709121E+03  0.1049000E+01 1  0.1000000E+01
 0.7180000E+00  0.2746635E+03  0.1049000E+01 1  0.1000000E+01
 0.7268500E+00  0.2805906E+03  0.1049000E+01 1  0.1000000E+01
 0.7357000E+00  0.2843029E+03  0.1049000E+01 1  0.1000000E+01
 0.7445500E+00  0.2883142E+03  0.1049000E+01 1  0.1000000E+01
 0.7534000E+00  0.2894740E+03  0.1049000E+01 1  0.1000000E+01
 0.7622500E+00  0.2944030E+03  0.1049000E+01 1  0.1000000E+01
 0.7711000E+00  0.2978903E+03  0.1049000E+01 1  0.1000000E+01
 0.7799500E+00  0.2972744E+03  0.1049000E+01 1  0.1000000E+01
 0.7888000E+00  0.2954036E+03  0.1049000E+01 1  0.1000000E+01
 0.7976500E+00  0.2992227E+03  0.1049000E+01 1  0.1000000E+01
 0.8065000E+00  0.2972430E+03  0.1049000E+01 1  0.1000000E+01
 0.8153500E+00  0.2821596E+03  0.1049000E+01 1  0.1000000E+01
 0.8242000E+00  0.2891388E+03  0.1049000E+01 1  0.1000000E+01
 0.8330500E+00  0.2772877E+03  0.1049000E+01 1  0.1000000E+01
 0.8419000E+00  0.2474534E+03  0.1049000E+01 1  0.1000000E+01
 0.8507500E+00  0.2482396E+03  0.1049000E+01 1  0.1000000E+01
 0.8596000E+00  0.2029661E+03  0.1049000E+01 1  0.1000000E+01
 0.8684500E+00  0.1534609E+03  0.1049000E+01 1  0.1000000E+01
 0.8773000E+00  0.1110130E+03  0.1049000E+01 1  0.1000000E+01
 0.8861500E+00  0.5196410E+02  0.1049000E+01 1  0.1000000E+01
 0.8950000E+00  0.0000000E+00  0.1049000E+01 1  0.1000000E+01
# units diff cross section [10^{-38} cm^2/GeV/num_of_active_nucleons (N or Z)]
