# QE from  Nieves et al.,PRC 70,055503 (2004) & arXiv:1106.5374 [hep-ph]
# ein (gev) = 0.200E+00
# units diff cross section [10^{-38} cm^2/GeV
# Tlepton (GeV), dsigma/dTlepton, MA(GeV),  RPA (0/1), Eneutrino (GeV)
 0.1085000E-01  0.1110030E+01  0.1049000E+01 1  0.2000000E+00
 0.1170000E-01  0.1239498E+01  0.1049000E+01 1  0.2000000E+00
 0.1255000E-01  0.1377641E+01  0.1049000E+01 1  0.2000000E+00
 0.1340000E-01  0.1523846E+01  0.1049000E+01 1  0.2000000E+00
 0.1425000E-01  0.1676725E+01  0.1049000E+01 1  0.2000000E+00
 0.1510000E-01  0.1835768E+01  0.1049000E+01 1  0.2000000E+00
 0.1595000E-01  0.1999885E+01  0.1049000E+01 1  0.2000000E+00
 0.1680000E-01  0.2168214E+01  0.1049000E+01 1  0.2000000E+00
 0.1765000E-01  0.2340335E+01  0.1049000E+01 1  0.2000000E+00
 0.1850000E-01  0.2519267E+01  0.1049000E+01 1  0.2000000E+00
 0.1935000E-01  0.2704963E+01  0.1049000E+01 1  0.2000000E+00
 0.2020000E-01  0.2896955E+01  0.1049000E+01 1  0.2000000E+00
 0.2105000E-01  0.3093922E+01  0.1049000E+01 1  0.2000000E+00
 0.2190000E-01  0.3295037E+01  0.1049000E+01 1  0.2000000E+00
 0.2275000E-01  0.3499792E+01  0.1049000E+01 1  0.2000000E+00
 0.2360000E-01  0.3708268E+01  0.1049000E+01 1  0.2000000E+00
 0.2445000E-01  0.3921628E+01  0.1049000E+01 1  0.2000000E+00
 0.2530000E-01  0.4139187E+01  0.1049000E+01 1  0.2000000E+00
 0.2615000E-01  0.4360638E+01  0.1049000E+01 1  0.2000000E+00
 0.2700000E-01  0.4584595E+01  0.1049000E+01 1  0.2000000E+00
 0.2785000E-01  0.4810188E+01  0.1049000E+01 1  0.2000000E+00
 0.2870000E-01  0.5039413E+01  0.1049000E+01 1  0.2000000E+00
 0.2955000E-01  0.5269000E+01  0.1049000E+01 1  0.2000000E+00
 0.3040000E-01  0.5500370E+01  0.1049000E+01 1  0.2000000E+00
 0.3125000E-01  0.5732620E+01  0.1049000E+01 1  0.2000000E+00
 0.3210000E-01  0.5962149E+01  0.1049000E+01 1  0.2000000E+00
 0.3295000E-01  0.6192447E+01  0.1049000E+01 1  0.2000000E+00
 0.3380000E-01  0.6417040E+01  0.1049000E+01 1  0.2000000E+00
 0.3465000E-01  0.6635579E+01  0.1049000E+01 1  0.2000000E+00
 0.3550000E-01  0.6848342E+01  0.1049000E+01 1  0.2000000E+00
 0.3635000E-01  0.7052174E+01  0.1049000E+01 1  0.2000000E+00
 0.3720000E-01  0.7243312E+01  0.1049000E+01 1  0.2000000E+00
 0.3805000E-01  0.7429900E+01  0.1049000E+01 1  0.2000000E+00
 0.3890000E-01  0.7602406E+01  0.1049000E+01 1  0.2000000E+00
 0.3975000E-01  0.7760275E+01  0.1049000E+01 1  0.2000000E+00
 0.4060000E-01  0.7908742E+01  0.1049000E+01 1  0.2000000E+00
 0.4145000E-01  0.8045618E+01  0.1049000E+01 1  0.2000000E+00
 0.4230000E-01  0.8168452E+01  0.1049000E+01 1  0.2000000E+00
 0.4315000E-01  0.8282769E+01  0.1049000E+01 1  0.2000000E+00
 0.4400000E-01  0.8373885E+01  0.1049000E+01 1  0.2000000E+00
 0.4485000E-01  0.8456417E+01  0.1049000E+01 1  0.2000000E+00
 0.4570000E-01  0.8526811E+01  0.1049000E+01 1  0.2000000E+00
 0.4655000E-01  0.8587270E+01  0.1049000E+01 1  0.2000000E+00
 0.4740000E-01  0.8640451E+01  0.1049000E+01 1  0.2000000E+00
 0.4825000E-01  0.8675704E+01  0.1049000E+01 1  0.2000000E+00
 0.4910000E-01  0.8705443E+01  0.1049000E+01 1  0.2000000E+00
 0.4995000E-01  0.8719341E+01  0.1049000E+01 1  0.2000000E+00
 0.5080000E-01  0.8718681E+01  0.1049000E+01 1  0.2000000E+00
 0.5165000E-01  0.8694598E+01  0.1049000E+01 1  0.2000000E+00
 0.5250000E-01  0.8650700E+01  0.1049000E+01 1  0.2000000E+00
 0.5335000E-01  0.8601098E+01  0.1049000E+01 1  0.2000000E+00
 0.5420000E-01  0.8533358E+01  0.1049000E+01 1  0.2000000E+00
 0.5505000E-01  0.8455460E+01  0.1049000E+01 1  0.2000000E+00
 0.5590000E-01  0.8371937E+01  0.1049000E+01 1  0.2000000E+00
 0.5675000E-01  0.8262330E+01  0.1049000E+01 1  0.2000000E+00
 0.5760000E-01  0.8148053E+01  0.1049000E+01 1  0.2000000E+00
 0.5845000E-01  0.8020299E+01  0.1049000E+01 1  0.2000000E+00
 0.5930000E-01  0.7875893E+01  0.1049000E+01 1  0.2000000E+00
 0.6015000E-01  0.7720664E+01  0.1049000E+01 1  0.2000000E+00
 0.6100000E-01  0.7523419E+01  0.1049000E+01 1  0.2000000E+00
 0.6185000E-01  0.7316048E+01  0.1049000E+01 1  0.2000000E+00
 0.6270000E-01  0.7087685E+01  0.1049000E+01 1  0.2000000E+00
 0.6355000E-01  0.6852594E+01  0.1049000E+01 1  0.2000000E+00
 0.6440000E-01  0.6596676E+01  0.1049000E+01 1  0.2000000E+00
 0.6525000E-01  0.6321052E+01  0.1049000E+01 1  0.2000000E+00
 0.6610000E-01  0.6039411E+01  0.1049000E+01 1  0.2000000E+00
 0.6695000E-01  0.5747081E+01  0.1049000E+01 1  0.2000000E+00
 0.6780000E-01  0.5447378E+01  0.1049000E+01 1  0.2000000E+00
 0.6865000E-01  0.5118396E+01  0.1049000E+01 1  0.2000000E+00
 0.6950000E-01  0.4738681E+01  0.1049000E+01 1  0.2000000E+00
 0.7035000E-01  0.4339821E+01  0.1049000E+01 1  0.2000000E+00
 0.7120000E-01  0.3930769E+01  0.1049000E+01 1  0.2000000E+00
 0.7205000E-01  0.3507570E+01  0.1049000E+01 1  0.2000000E+00
 0.7290000E-01  0.3067315E+01  0.1049000E+01 1  0.2000000E+00
 0.7375000E-01  0.2595998E+01  0.1049000E+01 1  0.2000000E+00
 0.7460000E-01  0.2056244E+01  0.1049000E+01 1  0.2000000E+00
 0.7545000E-01  0.1499111E+01  0.1049000E+01 1  0.2000000E+00
 0.7630000E-01  0.9056223E+00  0.1049000E+01 1  0.2000000E+00
 0.7715000E-01  0.2741447E+00  0.1049000E+01 1  0.2000000E+00
 0.7800000E-01  0.0000000E+00  0.1049000E+01 1  0.2000000E+00
 0.7885000E-01  0.0000000E+00  0.1049000E+01 1  0.2000000E+00
 0.7970000E-01  0.0000000E+00  0.1049000E+01 1  0.2000000E+00
 0.8055000E-01  0.0000000E+00  0.1049000E+01 1  0.2000000E+00
 0.8140000E-01  0.0000000E+00  0.1049000E+01 1  0.2000000E+00
 0.8225000E-01  0.0000000E+00  0.1049000E+01 1  0.2000000E+00
 0.8310000E-01  0.0000000E+00  0.1049000E+01 1  0.2000000E+00
 0.8395000E-01  0.0000000E+00  0.1049000E+01 1  0.2000000E+00
 0.8480000E-01  0.0000000E+00  0.1049000E+01 1  0.2000000E+00
 0.8565000E-01  0.0000000E+00  0.1049000E+01 1  0.2000000E+00
 0.8650000E-01  0.0000000E+00  0.1049000E+01 1  0.2000000E+00
 0.8735000E-01  0.0000000E+00  0.1049000E+01 1  0.2000000E+00
 0.8820000E-01  0.0000000E+00  0.1049000E+01 1  0.2000000E+00
 0.8905000E-01  0.0000000E+00  0.1049000E+01 1  0.2000000E+00
 0.8990000E-01  0.0000000E+00  0.1049000E+01 1  0.2000000E+00
 0.9075000E-01  0.0000000E+00  0.1049000E+01 1  0.2000000E+00
 0.9160000E-01  0.0000000E+00  0.1049000E+01 1  0.2000000E+00
 0.9245000E-01  0.0000000E+00  0.1049000E+01 1  0.2000000E+00
 0.9330000E-01  0.0000000E+00  0.1049000E+01 1  0.2000000E+00
 0.9415000E-01  0.0000000E+00  0.1049000E+01 1  0.2000000E+00
 0.9500000E-01  0.0000000E+00  0.1049000E+01 1  0.2000000E+00
# units diff cross section [10^{-38} cm^2/GeV/num_of_active_nucleons (N or Z)]
