# QE from  Nieves et al.,PRC 70,055503 (2004) & arXiv:1106.5374 [hep-ph]
# ein (gev) = 0.200E+00
# units diff cross section [10^{-38} cm^2/GeV
# Tlepton (GeV), dsigma/dTlepton, MA(GeV),  RPA (0/1), Eneutrino (GeV)
 0.1085000E-01  0.0000000E+00  0.1049000E+01 1  0.2000000E+00
 0.1170000E-01  0.1029002E-03  0.1049000E+01 1  0.2000000E+00
 0.1255000E-01  0.7975672E-03  0.1049000E+01 1  0.2000000E+00
 0.1340000E-01  0.2296802E-02  0.1049000E+01 1  0.2000000E+00
 0.1425000E-01  0.4872358E-02  0.1049000E+01 1  0.2000000E+00
 0.1510000E-01  0.9235445E-02  0.1049000E+01 1  0.2000000E+00
 0.1595000E-01  0.1512383E-01  0.1049000E+01 1  0.2000000E+00
 0.1680000E-01  0.2233724E-01  0.1049000E+01 1  0.2000000E+00
 0.1765000E-01  0.3056519E-01  0.1049000E+01 1  0.2000000E+00
 0.1850000E-01  0.3885850E-01  0.1049000E+01 1  0.2000000E+00
 0.1935000E-01  0.4676310E-01  0.1049000E+01 1  0.2000000E+00
 0.2020000E-01  0.5523708E-01  0.1049000E+01 1  0.2000000E+00
 0.2105000E-01  0.6502597E-01  0.1049000E+01 1  0.2000000E+00
 0.2190000E-01  0.7626136E-01  0.1049000E+01 1  0.2000000E+00
 0.2275000E-01  0.8900957E-01  0.1049000E+01 1  0.2000000E+00
 0.2360000E-01  0.1022911E+00  0.1049000E+01 1  0.2000000E+00
 0.2445000E-01  0.1148531E+00  0.1049000E+01 1  0.2000000E+00
 0.2530000E-01  0.1263231E+00  0.1049000E+01 1  0.2000000E+00
 0.2615000E-01  0.1364610E+00  0.1049000E+01 1  0.2000000E+00
 0.2700000E-01  0.1451702E+00  0.1049000E+01 1  0.2000000E+00
 0.2785000E-01  0.1542406E+00  0.1049000E+01 1  0.2000000E+00
 0.2870000E-01  0.1652867E+00  0.1049000E+01 1  0.2000000E+00
 0.2955000E-01  0.1786515E+00  0.1049000E+01 1  0.2000000E+00
 0.3040000E-01  0.1945205E+00  0.1049000E+01 1  0.2000000E+00
 0.3125000E-01  0.2115713E+00  0.1049000E+01 1  0.2000000E+00
 0.3210000E-01  0.2277727E+00  0.1049000E+01 1  0.2000000E+00
 0.3295000E-01  0.2427021E+00  0.1049000E+01 1  0.2000000E+00
 0.3380000E-01  0.2560886E+00  0.1049000E+01 1  0.2000000E+00
 0.3465000E-01  0.2677906E+00  0.1049000E+01 1  0.2000000E+00
 0.3550000E-01  0.2777951E+00  0.1049000E+01 1  0.2000000E+00
 0.3635000E-01  0.2883049E+00  0.1049000E+01 1  0.2000000E+00
 0.3720000E-01  0.3010546E+00  0.1049000E+01 1  0.2000000E+00
 0.3805000E-01  0.3162676E+00  0.1049000E+01 1  0.2000000E+00
 0.3890000E-01  0.3340299E+00  0.1049000E+01 1  0.2000000E+00
 0.3975000E-01  0.3521454E+00  0.1049000E+01 1  0.2000000E+00
 0.4060000E-01  0.3688440E+00  0.1049000E+01 1  0.2000000E+00
 0.4145000E-01  0.3838777E+00  0.1049000E+01 1  0.2000000E+00
 0.4230000E-01  0.3970821E+00  0.1049000E+01 1  0.2000000E+00
 0.4315000E-01  0.4082804E+00  0.1049000E+01 1  0.2000000E+00
 0.4400000E-01  0.4190114E+00  0.1049000E+01 1  0.2000000E+00
 0.4485000E-01  0.4315647E+00  0.1049000E+01 1  0.2000000E+00
 0.4570000E-01  0.4459438E+00  0.1049000E+01 1  0.2000000E+00
 0.4655000E-01  0.4614663E+00  0.1049000E+01 1  0.2000000E+00
 0.4740000E-01  0.4764077E+00  0.1049000E+01 1  0.2000000E+00
 0.4825000E-01  0.4897177E+00  0.1049000E+01 1  0.2000000E+00
 0.4910000E-01  0.5010936E+00  0.1049000E+01 1  0.2000000E+00
 0.4995000E-01  0.5117399E+00  0.1049000E+01 1  0.2000000E+00
 0.5080000E-01  0.5230252E+00  0.1049000E+01 1  0.2000000E+00
 0.5165000E-01  0.5345644E+00  0.1049000E+01 1  0.2000000E+00
 0.5250000E-01  0.5447209E+00  0.1049000E+01 1  0.2000000E+00
 0.5335000E-01  0.5535339E+00  0.1049000E+01 1  0.2000000E+00
 0.5420000E-01  0.5616449E+00  0.1049000E+01 1  0.2000000E+00
 0.5505000E-01  0.5692194E+00  0.1049000E+01 1  0.2000000E+00
 0.5590000E-01  0.5759686E+00  0.1049000E+01 1  0.2000000E+00
 0.5675000E-01  0.5815723E+00  0.1049000E+01 1  0.2000000E+00
 0.5760000E-01  0.5847322E+00  0.1049000E+01 1  0.2000000E+00
 0.5845000E-01  0.5854439E+00  0.1049000E+01 1  0.2000000E+00
 0.5930000E-01  0.5819954E+00  0.1049000E+01 1  0.2000000E+00
 0.6015000E-01  0.5725023E+00  0.1049000E+01 1  0.2000000E+00
 0.6100000E-01  0.5540011E+00  0.1049000E+01 1  0.2000000E+00
 0.6185000E-01  0.5310844E+00  0.1049000E+01 1  0.2000000E+00
 0.6270000E-01  0.5064704E+00  0.1049000E+01 1  0.2000000E+00
 0.6355000E-01  0.4804476E+00  0.1049000E+01 1  0.2000000E+00
 0.6440000E-01  0.4529215E+00  0.1049000E+01 1  0.2000000E+00
 0.6525000E-01  0.4249871E+00  0.1049000E+01 1  0.2000000E+00
 0.6610000E-01  0.3974727E+00  0.1049000E+01 1  0.2000000E+00
 0.6695000E-01  0.3703143E+00  0.1049000E+01 1  0.2000000E+00
 0.6780000E-01  0.3414091E+00  0.1049000E+01 1  0.2000000E+00
 0.6865000E-01  0.3105982E+00  0.1049000E+01 1  0.2000000E+00
 0.6950000E-01  0.2810734E+00  0.1049000E+01 1  0.2000000E+00
 0.7035000E-01  0.2527213E+00  0.1049000E+01 1  0.2000000E+00
 0.7120000E-01  0.2218003E+00  0.1049000E+01 1  0.2000000E+00
 0.7205000E-01  0.1906381E+00  0.1049000E+01 1  0.2000000E+00
 0.7290000E-01  0.1591935E+00  0.1049000E+01 1  0.2000000E+00
 0.7375000E-01  0.1271184E+00  0.1049000E+01 1  0.2000000E+00
 0.7460000E-01  0.9416849E-01  0.1049000E+01 1  0.2000000E+00
 0.7545000E-01  0.6135515E-01  0.1049000E+01 1  0.2000000E+00
 0.7630000E-01  0.3344477E-01  0.1049000E+01 1  0.2000000E+00
 0.7715000E-01  0.1003521E-01  0.1049000E+01 1  0.2000000E+00
 0.7800000E-01  0.0000000E+00  0.1049000E+01 1  0.2000000E+00
 0.7885000E-01  0.0000000E+00  0.1049000E+01 1  0.2000000E+00
 0.7970000E-01  0.0000000E+00  0.1049000E+01 1  0.2000000E+00
 0.8055000E-01  0.0000000E+00  0.1049000E+01 1  0.2000000E+00
 0.8140000E-01  0.0000000E+00  0.1049000E+01 1  0.2000000E+00
 0.8225000E-01  0.0000000E+00  0.1049000E+01 1  0.2000000E+00
 0.8310000E-01  0.0000000E+00  0.1049000E+01 1  0.2000000E+00
 0.8395000E-01  0.0000000E+00  0.1049000E+01 1  0.2000000E+00
 0.8480000E-01  0.0000000E+00  0.1049000E+01 1  0.2000000E+00
 0.8565000E-01  0.0000000E+00  0.1049000E+01 1  0.2000000E+00
 0.8650000E-01  0.0000000E+00  0.1049000E+01 1  0.2000000E+00
 0.8735000E-01  0.0000000E+00  0.1049000E+01 1  0.2000000E+00
 0.8820000E-01  0.0000000E+00  0.1049000E+01 1  0.2000000E+00
 0.8905000E-01  0.0000000E+00  0.1049000E+01 1  0.2000000E+00
 0.8990000E-01  0.0000000E+00  0.1049000E+01 1  0.2000000E+00
 0.9075000E-01  0.0000000E+00  0.1049000E+01 1  0.2000000E+00
 0.9160000E-01  0.0000000E+00  0.1049000E+01 1  0.2000000E+00
 0.9245000E-01  0.0000000E+00  0.1049000E+01 1  0.2000000E+00
 0.9330000E-01  0.0000000E+00  0.1049000E+01 1  0.2000000E+00
 0.9415000E-01  0.0000000E+00  0.1049000E+01 1  0.2000000E+00
 0.9500000E-01  0.0000000E+00  0.1049000E+01 1  0.2000000E+00
# units diff cross section [10^{-38} cm^2/GeV/num_of_active_nucleons (N or Z)]
