# QE from  Nieves et al.,PRC 70,055503 (2004) & arXiv:1106.5374 [hep-ph]
# ein (gev) = 0.200E+00
# units diff cross section [10^{-38} cm^2/GeV
# Tlepton (GeV), dsigma/dTlepton, MA(GeV),  RPA (0/1), Eneutrino (GeV)
 0.1085000E-01  0.5046508E-01  0.1049000E+01 1  0.2000000E+00
 0.1170000E-01  0.6052445E-01  0.1049000E+01 1  0.2000000E+00
 0.1255000E-01  0.7031793E-01  0.1049000E+01 1  0.2000000E+00
 0.1340000E-01  0.7959978E-01  0.1049000E+01 1  0.2000000E+00
 0.1425000E-01  0.8820635E-01  0.1049000E+01 1  0.2000000E+00
 0.1510000E-01  0.9604758E-01  0.1049000E+01 1  0.2000000E+00
 0.1595000E-01  0.1032995E+00  0.1049000E+01 1  0.2000000E+00
 0.1680000E-01  0.1126040E+00  0.1049000E+01 1  0.2000000E+00
 0.1765000E-01  0.1250001E+00  0.1049000E+01 1  0.2000000E+00
 0.1850000E-01  0.1389672E+00  0.1049000E+01 1  0.2000000E+00
 0.1935000E-01  0.1526043E+00  0.1049000E+01 1  0.2000000E+00
 0.2020000E-01  0.1656549E+00  0.1049000E+01 1  0.2000000E+00
 0.2105000E-01  0.1779467E+00  0.1049000E+01 1  0.2000000E+00
 0.2190000E-01  0.1893720E+00  0.1049000E+01 1  0.2000000E+00
 0.2275000E-01  0.1998763E+00  0.1049000E+01 1  0.2000000E+00
 0.2360000E-01  0.2094470E+00  0.1049000E+01 1  0.2000000E+00
 0.2445000E-01  0.2189845E+00  0.1049000E+01 1  0.2000000E+00
 0.2530000E-01  0.2313775E+00  0.1049000E+01 1  0.2000000E+00
 0.2615000E-01  0.2469058E+00  0.1049000E+01 1  0.2000000E+00
 0.2700000E-01  0.2631961E+00  0.1049000E+01 1  0.2000000E+00
 0.2785000E-01  0.2787486E+00  0.1049000E+01 1  0.2000000E+00
 0.2870000E-01  0.2934240E+00  0.1049000E+01 1  0.2000000E+00
 0.2955000E-01  0.3071399E+00  0.1049000E+01 1  0.2000000E+00
 0.3040000E-01  0.3198522E+00  0.1049000E+01 1  0.2000000E+00
 0.3125000E-01  0.3315448E+00  0.1049000E+01 1  0.2000000E+00
 0.3210000E-01  0.3424950E+00  0.1049000E+01 1  0.2000000E+00
 0.3295000E-01  0.3553059E+00  0.1049000E+01 1  0.2000000E+00
 0.3380000E-01  0.3706056E+00  0.1049000E+01 1  0.2000000E+00
 0.3465000E-01  0.3871378E+00  0.1049000E+01 1  0.2000000E+00
 0.3550000E-01  0.4025788E+00  0.1049000E+01 1  0.2000000E+00
 0.3635000E-01  0.4167993E+00  0.1049000E+01 1  0.2000000E+00
 0.3720000E-01  0.4297583E+00  0.1049000E+01 1  0.2000000E+00
 0.3805000E-01  0.4414339E+00  0.1049000E+01 1  0.2000000E+00
 0.3890000E-01  0.4530096E+00  0.1049000E+01 1  0.2000000E+00
 0.3975000E-01  0.4658932E+00  0.1049000E+01 1  0.2000000E+00
 0.4060000E-01  0.4794105E+00  0.1049000E+01 1  0.2000000E+00
 0.4145000E-01  0.4918983E+00  0.1049000E+01 1  0.2000000E+00
 0.4230000E-01  0.5027872E+00  0.1049000E+01 1  0.2000000E+00
 0.4315000E-01  0.5125266E+00  0.1049000E+01 1  0.2000000E+00
 0.4400000E-01  0.5217700E+00  0.1049000E+01 1  0.2000000E+00
 0.4485000E-01  0.5311289E+00  0.1049000E+01 1  0.2000000E+00
 0.4570000E-01  0.5392152E+00  0.1049000E+01 1  0.2000000E+00
 0.4655000E-01  0.5461365E+00  0.1049000E+01 1  0.2000000E+00
 0.4740000E-01  0.5518500E+00  0.1049000E+01 1  0.2000000E+00
 0.4825000E-01  0.5556626E+00  0.1049000E+01 1  0.2000000E+00
 0.4910000E-01  0.5566990E+00  0.1049000E+01 1  0.2000000E+00
 0.4995000E-01  0.5536499E+00  0.1049000E+01 1  0.2000000E+00
 0.5080000E-01  0.5462605E+00  0.1049000E+01 1  0.2000000E+00
 0.5165000E-01  0.5346296E+00  0.1049000E+01 1  0.2000000E+00
 0.5250000E-01  0.5214626E+00  0.1049000E+01 1  0.2000000E+00
 0.5335000E-01  0.5074564E+00  0.1049000E+01 1  0.2000000E+00
 0.5420000E-01  0.4925533E+00  0.1049000E+01 1  0.2000000E+00
 0.5505000E-01  0.4760773E+00  0.1049000E+01 1  0.2000000E+00
 0.5590000E-01  0.4595749E+00  0.1049000E+01 1  0.2000000E+00
 0.5675000E-01  0.4437719E+00  0.1049000E+01 1  0.2000000E+00
 0.5760000E-01  0.4275552E+00  0.1049000E+01 1  0.2000000E+00
 0.5845000E-01  0.4099477E+00  0.1049000E+01 1  0.2000000E+00
 0.5930000E-01  0.3908906E+00  0.1049000E+01 1  0.2000000E+00
 0.6015000E-01  0.3711992E+00  0.1049000E+01 1  0.2000000E+00
 0.6100000E-01  0.3535665E+00  0.1049000E+01 1  0.2000000E+00
 0.6185000E-01  0.3379801E+00  0.1049000E+01 1  0.2000000E+00
 0.6270000E-01  0.3208675E+00  0.1049000E+01 1  0.2000000E+00
 0.6355000E-01  0.3010382E+00  0.1049000E+01 1  0.2000000E+00
 0.6440000E-01  0.2809807E+00  0.1049000E+01 1  0.2000000E+00
 0.6525000E-01  0.2604254E+00  0.1049000E+01 1  0.2000000E+00
 0.6610000E-01  0.2392094E+00  0.1049000E+01 1  0.2000000E+00
 0.6695000E-01  0.2172115E+00  0.1049000E+01 1  0.2000000E+00
 0.6780000E-01  0.1956749E+00  0.1049000E+01 1  0.2000000E+00
 0.6865000E-01  0.1780235E+00  0.1049000E+01 1  0.2000000E+00
 0.6950000E-01  0.1634526E+00  0.1049000E+01 1  0.2000000E+00
 0.7035000E-01  0.1487076E+00  0.1049000E+01 1  0.2000000E+00
 0.7120000E-01  0.1335999E+00  0.1049000E+01 1  0.2000000E+00
 0.7205000E-01  0.1181094E+00  0.1049000E+01 1  0.2000000E+00
 0.7290000E-01  0.1022166E+00  0.1049000E+01 1  0.2000000E+00
 0.7375000E-01  0.8590154E-01  0.1049000E+01 1  0.2000000E+00
 0.7460000E-01  0.6914261E-01  0.1049000E+01 1  0.2000000E+00
 0.7545000E-01  0.5190999E-01  0.1049000E+01 1  0.2000000E+00
 0.7630000E-01  0.3292305E-01  0.1049000E+01 1  0.2000000E+00
 0.7715000E-01  0.1051291E-01  0.1049000E+01 1  0.2000000E+00
 0.7800000E-01  0.0000000E+00  0.1049000E+01 1  0.2000000E+00
 0.7885000E-01  0.0000000E+00  0.1049000E+01 1  0.2000000E+00
 0.7970000E-01  0.0000000E+00  0.1049000E+01 1  0.2000000E+00
 0.8055000E-01  0.0000000E+00  0.1049000E+01 1  0.2000000E+00
 0.8140000E-01  0.0000000E+00  0.1049000E+01 1  0.2000000E+00
 0.8225000E-01  0.0000000E+00  0.1049000E+01 1  0.2000000E+00
 0.8310000E-01  0.0000000E+00  0.1049000E+01 1  0.2000000E+00
 0.8395000E-01  0.0000000E+00  0.1049000E+01 1  0.2000000E+00
 0.8480000E-01  0.0000000E+00  0.1049000E+01 1  0.2000000E+00
 0.8565000E-01  0.0000000E+00  0.1049000E+01 1  0.2000000E+00
 0.8650000E-01  0.0000000E+00  0.1049000E+01 1  0.2000000E+00
 0.8735000E-01  0.0000000E+00  0.1049000E+01 1  0.2000000E+00
 0.8820000E-01  0.0000000E+00  0.1049000E+01 1  0.2000000E+00
 0.8905000E-01  0.0000000E+00  0.1049000E+01 1  0.2000000E+00
 0.8990000E-01  0.0000000E+00  0.1049000E+01 1  0.2000000E+00
 0.9075000E-01  0.0000000E+00  0.1049000E+01 1  0.2000000E+00
 0.9160000E-01  0.0000000E+00  0.1049000E+01 1  0.2000000E+00
 0.9245000E-01  0.0000000E+00  0.1049000E+01 1  0.2000000E+00
 0.9330000E-01  0.0000000E+00  0.1049000E+01 1  0.2000000E+00
 0.9415000E-01  0.0000000E+00  0.1049000E+01 1  0.2000000E+00
 0.9500000E-01  0.0000000E+00  0.1049000E+01 1  0.2000000E+00
# units diff cross section [10^{-38} cm^2/GeV/num_of_active_nucleons (N or Z)]
