# QE from  Nieves et al.,PRC 70,055503 (2004) & arXiv:1106.5374 [hep-ph]
# ein (gev) = 0.200E+00
# units diff cross section [10^{-38} cm^2/GeV
# Tlepton (GeV), dsigma/dTlepton, MA(GeV),  RPA (0/1), Eneutrino (GeV)
 0.1085000E-01  0.0000000E+00  0.1049000E+01 1  0.2000000E+00
 0.1170000E-01  0.0000000E+00  0.1049000E+01 1  0.2000000E+00
 0.1255000E-01  0.0000000E+00  0.1049000E+01 1  0.2000000E+00
 0.1340000E-01  0.0000000E+00  0.1049000E+01 1  0.2000000E+00
 0.1425000E-01  0.0000000E+00  0.1049000E+01 1  0.2000000E+00
 0.1510000E-01  0.0000000E+00  0.1049000E+01 1  0.2000000E+00
 0.1595000E-01  0.0000000E+00  0.1049000E+01 1  0.2000000E+00
 0.1680000E-01  0.0000000E+00  0.1049000E+01 1  0.2000000E+00
 0.1765000E-01  0.0000000E+00  0.1049000E+01 1  0.2000000E+00
 0.1850000E-01  0.0000000E+00  0.1049000E+01 1  0.2000000E+00
 0.1935000E-01  0.0000000E+00  0.1049000E+01 1  0.2000000E+00
 0.2020000E-01  0.0000000E+00  0.1049000E+01 1  0.2000000E+00
 0.2105000E-01  0.0000000E+00  0.1049000E+01 1  0.2000000E+00
 0.2190000E-01  0.0000000E+00  0.1049000E+01 1  0.2000000E+00
 0.2275000E-01  0.0000000E+00  0.1049000E+01 1  0.2000000E+00
 0.2360000E-01  0.0000000E+00  0.1049000E+01 1  0.2000000E+00
 0.2445000E-01  0.4004498E-04  0.1049000E+01 1  0.2000000E+00
 0.2530000E-01  0.6098351E-03  0.1049000E+01 1  0.2000000E+00
 0.2615000E-01  0.2028159E-02  0.1049000E+01 1  0.2000000E+00
 0.2700000E-01  0.4524644E-02  0.1049000E+01 1  0.2000000E+00
 0.2785000E-01  0.8935656E-02  0.1049000E+01 1  0.2000000E+00
 0.2870000E-01  0.1557159E-01  0.1049000E+01 1  0.2000000E+00
 0.2955000E-01  0.2440645E-01  0.1049000E+01 1  0.2000000E+00
 0.3040000E-01  0.3523671E-01  0.1049000E+01 1  0.2000000E+00
 0.3125000E-01  0.4764750E-01  0.1049000E+01 1  0.2000000E+00
 0.3210000E-01  0.6065286E-01  0.1049000E+01 1  0.2000000E+00
 0.3295000E-01  0.7483843E-01  0.1049000E+01 1  0.2000000E+00
 0.3380000E-01  0.9063630E-01  0.1049000E+01 1  0.2000000E+00
 0.3465000E-01  0.1070973E+00  0.1049000E+01 1  0.2000000E+00
 0.3550000E-01  0.1238492E+00  0.1049000E+01 1  0.2000000E+00
 0.3635000E-01  0.1406788E+00  0.1049000E+01 1  0.2000000E+00
 0.3720000E-01  0.1574893E+00  0.1049000E+01 1  0.2000000E+00
 0.3805000E-01  0.1742459E+00  0.1049000E+01 1  0.2000000E+00
 0.3890000E-01  0.1901940E+00  0.1049000E+01 1  0.2000000E+00
 0.3975000E-01  0.2036774E+00  0.1049000E+01 1  0.2000000E+00
 0.4060000E-01  0.2169267E+00  0.1049000E+01 1  0.2000000E+00
 0.4145000E-01  0.2308472E+00  0.1049000E+01 1  0.2000000E+00
 0.4230000E-01  0.2460103E+00  0.1049000E+01 1  0.2000000E+00
 0.4315000E-01  0.2628376E+00  0.1049000E+01 1  0.2000000E+00
 0.4400000E-01  0.2814970E+00  0.1049000E+01 1  0.2000000E+00
 0.4485000E-01  0.3018998E+00  0.1049000E+01 1  0.2000000E+00
 0.4570000E-01  0.3227355E+00  0.1049000E+01 1  0.2000000E+00
 0.4655000E-01  0.3403070E+00  0.1049000E+01 1  0.2000000E+00
 0.4740000E-01  0.3538379E+00  0.1049000E+01 1  0.2000000E+00
 0.4825000E-01  0.3661643E+00  0.1049000E+01 1  0.2000000E+00
 0.4910000E-01  0.3787111E+00  0.1049000E+01 1  0.2000000E+00
 0.4995000E-01  0.3921949E+00  0.1049000E+01 1  0.2000000E+00
 0.5080000E-01  0.4071505E+00  0.1049000E+01 1  0.2000000E+00
 0.5165000E-01  0.4242683E+00  0.1049000E+01 1  0.2000000E+00
 0.5250000E-01  0.4435062E+00  0.1049000E+01 1  0.2000000E+00
 0.5335000E-01  0.4609893E+00  0.1049000E+01 1  0.2000000E+00
 0.5420000E-01  0.4748909E+00  0.1049000E+01 1  0.2000000E+00
 0.5505000E-01  0.4872242E+00  0.1049000E+01 1  0.2000000E+00
 0.5590000E-01  0.4989961E+00  0.1049000E+01 1  0.2000000E+00
 0.5675000E-01  0.5118230E+00  0.1049000E+01 1  0.2000000E+00
 0.5760000E-01  0.5262845E+00  0.1049000E+01 1  0.2000000E+00
 0.5845000E-01  0.5417452E+00  0.1049000E+01 1  0.2000000E+00
 0.5930000E-01  0.5551803E+00  0.1049000E+01 1  0.2000000E+00
 0.6015000E-01  0.5670027E+00  0.1049000E+01 1  0.2000000E+00
 0.6100000E-01  0.5770823E+00  0.1049000E+01 1  0.2000000E+00
 0.6185000E-01  0.5827349E+00  0.1049000E+01 1  0.2000000E+00
 0.6270000E-01  0.5867705E+00  0.1049000E+01 1  0.2000000E+00
 0.6355000E-01  0.5930780E+00  0.1049000E+01 1  0.2000000E+00
 0.6440000E-01  0.5971910E+00  0.1049000E+01 1  0.2000000E+00
 0.6525000E-01  0.5991749E+00  0.1049000E+01 1  0.2000000E+00
 0.6610000E-01  0.5987725E+00  0.1049000E+01 1  0.2000000E+00
 0.6695000E-01  0.5930332E+00  0.1049000E+01 1  0.2000000E+00
 0.6780000E-01  0.5788795E+00  0.1049000E+01 1  0.2000000E+00
 0.6865000E-01  0.5514326E+00  0.1049000E+01 1  0.2000000E+00
 0.6950000E-01  0.5063681E+00  0.1049000E+01 1  0.2000000E+00
 0.7035000E-01  0.4578977E+00  0.1049000E+01 1  0.2000000E+00
 0.7120000E-01  0.4065181E+00  0.1049000E+01 1  0.2000000E+00
 0.7205000E-01  0.3544060E+00  0.1049000E+01 1  0.2000000E+00
 0.7290000E-01  0.3028425E+00  0.1049000E+01 1  0.2000000E+00
 0.7375000E-01  0.2521081E+00  0.1049000E+01 1  0.2000000E+00
 0.7460000E-01  0.1978096E+00  0.1049000E+01 1  0.2000000E+00
 0.7545000E-01  0.1350649E+00  0.1049000E+01 1  0.2000000E+00
 0.7630000E-01  0.7612247E-01  0.1049000E+01 1  0.2000000E+00
 0.7715000E-01  0.2300178E-01  0.1049000E+01 1  0.2000000E+00
 0.7800000E-01  0.0000000E+00  0.1049000E+01 1  0.2000000E+00
 0.7885000E-01  0.0000000E+00  0.1049000E+01 1  0.2000000E+00
 0.7970000E-01  0.0000000E+00  0.1049000E+01 1  0.2000000E+00
 0.8055000E-01  0.0000000E+00  0.1049000E+01 1  0.2000000E+00
 0.8140000E-01  0.0000000E+00  0.1049000E+01 1  0.2000000E+00
 0.8225000E-01  0.0000000E+00  0.1049000E+01 1  0.2000000E+00
 0.8310000E-01  0.0000000E+00  0.1049000E+01 1  0.2000000E+00
 0.8395000E-01  0.0000000E+00  0.1049000E+01 1  0.2000000E+00
 0.8480000E-01  0.0000000E+00  0.1049000E+01 1  0.2000000E+00
 0.8565000E-01  0.0000000E+00  0.1049000E+01 1  0.2000000E+00
 0.8650000E-01  0.0000000E+00  0.1049000E+01 1  0.2000000E+00
 0.8735000E-01  0.0000000E+00  0.1049000E+01 1  0.2000000E+00
 0.8820000E-01  0.0000000E+00  0.1049000E+01 1  0.2000000E+00
 0.8905000E-01  0.0000000E+00  0.1049000E+01 1  0.2000000E+00
 0.8990000E-01  0.0000000E+00  0.1049000E+01 1  0.2000000E+00
 0.9075000E-01  0.0000000E+00  0.1049000E+01 1  0.2000000E+00
 0.9160000E-01  0.0000000E+00  0.1049000E+01 1  0.2000000E+00
 0.9245000E-01  0.0000000E+00  0.1049000E+01 1  0.2000000E+00
 0.9330000E-01  0.0000000E+00  0.1049000E+01 1  0.2000000E+00
 0.9415000E-01  0.0000000E+00  0.1049000E+01 1  0.2000000E+00
 0.9500000E-01  0.0000000E+00  0.1049000E+01 1  0.2000000E+00
# units diff cross section [10^{-38} cm^2/GeV/num_of_active_nucleons (N or Z)]
