# QE from  Nieves et al.,PRC 70,055503 (2004) & arXiv:1106.5374 [hep-ph]
# ein (gev) = 0.200E+00
# units diff cross section [10^{-38} cm^2/GeV
# Tlepton (GeV), dsigma/dTlepton, MA(GeV),  RPA (0/1), Eneutrino (GeV)
 0.1085000E-01  0.4485866E+02  0.1049000E+01 1  0.2000000E+00
 0.1170000E-01  0.4782329E+02  0.1049000E+01 1  0.2000000E+00
 0.1255000E-01  0.5083895E+02  0.1049000E+01 1  0.2000000E+00
 0.1340000E-01  0.5390496E+02  0.1049000E+01 1  0.2000000E+00
 0.1425000E-01  0.5701705E+02  0.1049000E+01 1  0.2000000E+00
 0.1510000E-01  0.6016672E+02  0.1049000E+01 1  0.2000000E+00
 0.1595000E-01  0.6334664E+02  0.1049000E+01 1  0.2000000E+00
 0.1680000E-01  0.6655020E+02  0.1049000E+01 1  0.2000000E+00
 0.1765000E-01  0.6978172E+02  0.1049000E+01 1  0.2000000E+00
 0.1850000E-01  0.7301562E+02  0.1049000E+01 1  0.2000000E+00
 0.1935000E-01  0.7625598E+02  0.1049000E+01 1  0.2000000E+00
 0.2020000E-01  0.7952064E+02  0.1049000E+01 1  0.2000000E+00
 0.2105000E-01  0.8275220E+02  0.1049000E+01 1  0.2000000E+00
 0.2190000E-01  0.8600865E+02  0.1049000E+01 1  0.2000000E+00
 0.2275000E-01  0.8926753E+02  0.1049000E+01 1  0.2000000E+00
 0.2360000E-01  0.9253152E+02  0.1049000E+01 1  0.2000000E+00
 0.2445000E-01  0.9582995E+02  0.1049000E+01 1  0.2000000E+00
 0.2530000E-01  0.9911025E+02  0.1049000E+01 1  0.2000000E+00
 0.2615000E-01  0.1023875E+03  0.1049000E+01 1  0.2000000E+00
 0.2700000E-01  0.1056620E+03  0.1049000E+01 1  0.2000000E+00
 0.2785000E-01  0.1089310E+03  0.1049000E+01 1  0.2000000E+00
 0.2870000E-01  0.1121686E+03  0.1049000E+01 1  0.2000000E+00
 0.2955000E-01  0.1153870E+03  0.1049000E+01 1  0.2000000E+00
 0.3040000E-01  0.1186127E+03  0.1049000E+01 1  0.2000000E+00
 0.3125000E-01  0.1218011E+03  0.1049000E+01 1  0.2000000E+00
 0.3210000E-01  0.1249727E+03  0.1049000E+01 1  0.2000000E+00
 0.3295000E-01  0.1281273E+03  0.1049000E+01 1  0.2000000E+00
 0.3380000E-01  0.1312254E+03  0.1049000E+01 1  0.2000000E+00
 0.3465000E-01  0.1343132E+03  0.1049000E+01 1  0.2000000E+00
 0.3550000E-01  0.1373331E+03  0.1049000E+01 1  0.2000000E+00
 0.3635000E-01  0.1403403E+03  0.1049000E+01 1  0.2000000E+00
 0.3720000E-01  0.1432835E+03  0.1049000E+01 1  0.2000000E+00
 0.3805000E-01  0.1461475E+03  0.1049000E+01 1  0.2000000E+00
 0.3890000E-01  0.1490011E+03  0.1049000E+01 1  0.2000000E+00
 0.3975000E-01  0.1517331E+03  0.1049000E+01 1  0.2000000E+00
 0.4060000E-01  0.1543753E+03  0.1049000E+01 1  0.2000000E+00
 0.4145000E-01  0.1569518E+03  0.1049000E+01 1  0.2000000E+00
 0.4230000E-01  0.1593908E+03  0.1049000E+01 1  0.2000000E+00
 0.4315000E-01  0.1616823E+03  0.1049000E+01 1  0.2000000E+00
 0.4400000E-01  0.1639008E+03  0.1049000E+01 1  0.2000000E+00
 0.4485000E-01  0.1659269E+03  0.1049000E+01 1  0.2000000E+00
 0.4570000E-01  0.1678020E+03  0.1049000E+01 1  0.2000000E+00
 0.4655000E-01  0.1695219E+03  0.1049000E+01 1  0.2000000E+00
 0.4740000E-01  0.1710834E+03  0.1049000E+01 1  0.2000000E+00
 0.4825000E-01  0.1725599E+03  0.1049000E+01 1  0.2000000E+00
 0.4910000E-01  0.1735988E+03  0.1049000E+01 1  0.2000000E+00
 0.4995000E-01  0.1744937E+03  0.1049000E+01 1  0.2000000E+00
 0.5080000E-01  0.1753419E+03  0.1049000E+01 1  0.2000000E+00
 0.5165000E-01  0.1759776E+03  0.1049000E+01 1  0.2000000E+00
 0.5250000E-01  0.1762400E+03  0.1049000E+01 1  0.2000000E+00
 0.5335000E-01  0.1764173E+03  0.1049000E+01 1  0.2000000E+00
 0.5420000E-01  0.1773193E+03  0.1049000E+01 1  0.2000000E+00
 0.5505000E-01  0.1775615E+03  0.1049000E+01 1  0.2000000E+00
 0.5590000E-01  0.1767390E+03  0.1049000E+01 1  0.2000000E+00
 0.5675000E-01  0.1762540E+03  0.1049000E+01 1  0.2000000E+00
 0.5760000E-01  0.1771785E+03  0.1049000E+01 1  0.2000000E+00
 0.5845000E-01  0.1764168E+03  0.1049000E+01 1  0.2000000E+00
 0.5930000E-01  0.1743626E+03  0.1049000E+01 1  0.2000000E+00
 0.6015000E-01  0.1729911E+03  0.1049000E+01 1  0.2000000E+00
 0.6100000E-01  0.1738035E+03  0.1049000E+01 1  0.2000000E+00
 0.6185000E-01  0.1718474E+03  0.1049000E+01 1  0.2000000E+00
 0.6270000E-01  0.1685937E+03  0.1049000E+01 1  0.2000000E+00
 0.6355000E-01  0.1663791E+03  0.1049000E+01 1  0.2000000E+00
 0.6440000E-01  0.1669513E+03  0.1049000E+01 1  0.2000000E+00
 0.6525000E-01  0.1644511E+03  0.1049000E+01 1  0.2000000E+00
 0.6610000E-01  0.1596347E+03  0.1049000E+01 1  0.2000000E+00
 0.6695000E-01  0.1571181E+03  0.1049000E+01 1  0.2000000E+00
 0.6780000E-01  0.1575881E+03  0.1049000E+01 1  0.2000000E+00
 0.6865000E-01  0.1549765E+03  0.1049000E+01 1  0.2000000E+00
 0.6950000E-01  0.1488040E+03  0.1049000E+01 1  0.2000000E+00
 0.7035000E-01  0.1495526E+03  0.1049000E+01 1  0.2000000E+00
 0.7120000E-01  0.1461335E+03  0.1049000E+01 1  0.2000000E+00
 0.7205000E-01  0.1421997E+03  0.1049000E+01 1  0.2000000E+00
 0.7290000E-01  0.1361476E+03  0.1049000E+01 1  0.2000000E+00
 0.7375000E-01  0.1324796E+03  0.1049000E+01 1  0.2000000E+00
 0.7460000E-01  0.1277785E+03  0.1049000E+01 1  0.2000000E+00
 0.7545000E-01  0.1327557E+03  0.1049000E+01 1  0.2000000E+00
 0.7630000E-01  0.1191558E+03  0.1049000E+01 1  0.2000000E+00
 0.7715000E-01  0.1178720E+03  0.1049000E+01 1  0.2000000E+00
 0.7800000E-01  0.1096425E+03  0.1049000E+01 1  0.2000000E+00
 0.7885000E-01  0.1184849E+03  0.1049000E+01 1  0.2000000E+00
 0.7970000E-01  0.9944433E+02  0.1049000E+01 1  0.2000000E+00
 0.8055000E-01  0.9377691E+02  0.1049000E+01 1  0.2000000E+00
 0.8140000E-01  0.8894646E+02  0.1049000E+01 1  0.2000000E+00
 0.8225000E-01  0.8308201E+02  0.1049000E+01 1  0.2000000E+00
 0.8310000E-01  0.7795328E+02  0.1049000E+01 1  0.2000000E+00
 0.8395000E-01  0.7169221E+02  0.1049000E+01 1  0.2000000E+00
 0.8480000E-01  0.6536511E+02  0.1049000E+01 1  0.2000000E+00
 0.8565000E-01  0.5898587E+02  0.1049000E+01 1  0.2000000E+00
 0.8650000E-01  0.5276714E+02  0.1049000E+01 1  0.2000000E+00
 0.8735000E-01  0.4638525E+02  0.1049000E+01 1  0.2000000E+00
 0.8820000E-01  0.8849838E+02  0.1049000E+01 1  0.2000000E+00
 0.8905000E-01  0.3170699E+02  0.1049000E+01 1  0.2000000E+00
 0.8990000E-01  0.2473522E+02  0.1049000E+01 1  0.2000000E+00
 0.9075000E-01  0.1501265E+02  0.1049000E+01 1  0.2000000E+00
 0.9160000E-01  0.7795652E+01  0.1049000E+01 1  0.2000000E+00
 0.9245000E-01  0.0000000E+00  0.1049000E+01 1  0.2000000E+00
 0.9330000E-01  0.0000000E+00  0.1049000E+01 1  0.2000000E+00
 0.9415000E-01  0.0000000E+00  0.1049000E+01 1  0.2000000E+00
 0.9500000E-01  0.0000000E+00  0.1049000E+01 1  0.2000000E+00
# units diff cross section [10^{-38} cm^2/GeV/num_of_active_nucleons (N or Z)]
