# QE from  Nieves et al.,PRC 70,055503 (2004) & arXiv:1106.5374 [hep-ph]
# ein (gev) = 0.200E+00
# units diff cross section [10^{-38} cm^2/GeV
# Tlepton (GeV), dsigma/dTlepton, MA(GeV),  RPA (0/1), Eneutrino (GeV)
 0.1085000E-01  0.1474168E+01  0.1049000E+01 0  0.2000000E+00
 0.1170000E-01  0.1796743E+01  0.1049000E+01 0  0.2000000E+00
 0.1255000E-01  0.2125227E+01  0.1049000E+01 0  0.2000000E+00
 0.1340000E-01  0.2458237E+01  0.1049000E+01 0  0.2000000E+00
 0.1425000E-01  0.2794853E+01  0.1049000E+01 0  0.2000000E+00
 0.1510000E-01  0.3134256E+01  0.1049000E+01 0  0.2000000E+00
 0.1595000E-01  0.3475717E+01  0.1049000E+01 0  0.2000000E+00
 0.1680000E-01  0.3818576E+01  0.1049000E+01 0  0.2000000E+00
 0.1765000E-01  0.4162233E+01  0.1049000E+01 0  0.2000000E+00
 0.1850000E-01  0.4506140E+01  0.1049000E+01 0  0.2000000E+00
 0.1935000E-01  0.4856638E+01  0.1049000E+01 0  0.2000000E+00
 0.2020000E-01  0.5249865E+01  0.1049000E+01 0  0.2000000E+00
 0.2105000E-01  0.5659465E+01  0.1049000E+01 0  0.2000000E+00
 0.2190000E-01  0.6067257E+01  0.1049000E+01 0  0.2000000E+00
 0.2275000E-01  0.6472707E+01  0.1049000E+01 0  0.2000000E+00
 0.2360000E-01  0.6875318E+01  0.1049000E+01 0  0.2000000E+00
 0.2445000E-01  0.7274621E+01  0.1049000E+01 0  0.2000000E+00
 0.2530000E-01  0.7670174E+01  0.1049000E+01 0  0.2000000E+00
 0.2615000E-01  0.8061560E+01  0.1049000E+01 0  0.2000000E+00
 0.2700000E-01  0.8448386E+01  0.1049000E+01 0  0.2000000E+00
 0.2785000E-01  0.8833751E+01  0.1049000E+01 0  0.2000000E+00
 0.2870000E-01  0.9241037E+01  0.1049000E+01 0  0.2000000E+00
 0.2955000E-01  0.9661008E+01  0.1049000E+01 0  0.2000000E+00
 0.3040000E-01  0.1007371E+02  0.1049000E+01 0  0.2000000E+00
 0.3125000E-01  0.1047850E+02  0.1049000E+01 0  0.2000000E+00
 0.3210000E-01  0.1087500E+02  0.1049000E+01 0  0.2000000E+00
 0.3295000E-01  0.1126283E+02  0.1049000E+01 0  0.2000000E+00
 0.3380000E-01  0.1164644E+02  0.1049000E+01 0  0.2000000E+00
 0.3465000E-01  0.1203956E+02  0.1049000E+01 0  0.2000000E+00
 0.3550000E-01  0.1243127E+02  0.1049000E+01 0  0.2000000E+00
 0.3635000E-01  0.1281074E+02  0.1049000E+01 0  0.2000000E+00
 0.3720000E-01  0.1317986E+02  0.1049000E+01 0  0.2000000E+00
 0.3805000E-01  0.1354736E+02  0.1049000E+01 0  0.2000000E+00
 0.3890000E-01  0.1390785E+02  0.1049000E+01 0  0.2000000E+00
 0.3975000E-01  0.1425760E+02  0.1049000E+01 0  0.2000000E+00
 0.4060000E-01  0.1459835E+02  0.1049000E+01 0  0.2000000E+00
 0.4145000E-01  0.1492691E+02  0.1049000E+01 0  0.2000000E+00
 0.4230000E-01  0.1523925E+02  0.1049000E+01 0  0.2000000E+00
 0.4315000E-01  0.1552922E+02  0.1049000E+01 0  0.2000000E+00
 0.4400000E-01  0.1579473E+02  0.1049000E+01 0  0.2000000E+00
 0.4485000E-01  0.1603532E+02  0.1049000E+01 0  0.2000000E+00
 0.4570000E-01  0.1625057E+02  0.1049000E+01 0  0.2000000E+00
 0.4655000E-01  0.1644011E+02  0.1049000E+01 0  0.2000000E+00
 0.4740000E-01  0.1660548E+02  0.1049000E+01 0  0.2000000E+00
 0.4825000E-01  0.1675208E+02  0.1049000E+01 0  0.2000000E+00
 0.4910000E-01  0.1688273E+02  0.1049000E+01 0  0.2000000E+00
 0.4995000E-01  0.1700039E+02  0.1049000E+01 0  0.2000000E+00
 0.5080000E-01  0.1710429E+02  0.1049000E+01 0  0.2000000E+00
 0.5165000E-01  0.1719159E+02  0.1049000E+01 0  0.2000000E+00
 0.5250000E-01  0.1727263E+02  0.1049000E+01 0  0.2000000E+00
 0.5335000E-01  0.1734459E+02  0.1049000E+01 0  0.2000000E+00
 0.5420000E-01  0.1739898E+02  0.1049000E+01 0  0.2000000E+00
 0.5505000E-01  0.1743546E+02  0.1049000E+01 0  0.2000000E+00
 0.5590000E-01  0.1745818E+02  0.1049000E+01 0  0.2000000E+00
 0.5675000E-01  0.1748448E+02  0.1049000E+01 0  0.2000000E+00
 0.5760000E-01  0.1751059E+02  0.1049000E+01 0  0.2000000E+00
 0.5845000E-01  0.1752216E+02  0.1049000E+01 0  0.2000000E+00
 0.5930000E-01  0.1751859E+02  0.1049000E+01 0  0.2000000E+00
 0.6015000E-01  0.1749976E+02  0.1049000E+01 0  0.2000000E+00
 0.6100000E-01  0.1746558E+02  0.1049000E+01 0  0.2000000E+00
 0.6185000E-01  0.1741594E+02  0.1049000E+01 0  0.2000000E+00
 0.6270000E-01  0.1735075E+02  0.1049000E+01 0  0.2000000E+00
 0.6355000E-01  0.1727031E+02  0.1049000E+01 0  0.2000000E+00
 0.6440000E-01  0.1719746E+02  0.1049000E+01 0  0.2000000E+00
 0.6525000E-01  0.1713355E+02  0.1049000E+01 0  0.2000000E+00
 0.6610000E-01  0.1700463E+02  0.1049000E+01 0  0.2000000E+00
 0.6695000E-01  0.1683851E+02  0.1049000E+01 0  0.2000000E+00
 0.6780000E-01  0.1662201E+02  0.1049000E+01 0  0.2000000E+00
 0.6865000E-01  0.1638885E+02  0.1049000E+01 0  0.2000000E+00
 0.6950000E-01  0.1614246E+02  0.1049000E+01 0  0.2000000E+00
 0.7035000E-01  0.1588281E+02  0.1049000E+01 0  0.2000000E+00
 0.7120000E-01  0.1560988E+02  0.1049000E+01 0  0.2000000E+00
 0.7205000E-01  0.1532367E+02  0.1049000E+01 0  0.2000000E+00
 0.7290000E-01  0.1502414E+02  0.1049000E+01 0  0.2000000E+00
 0.7375000E-01  0.1470991E+02  0.1049000E+01 0  0.2000000E+00
 0.7460000E-01  0.1434907E+02  0.1049000E+01 0  0.2000000E+00
 0.7545000E-01  0.1394212E+02  0.1049000E+01 0  0.2000000E+00
 0.7630000E-01  0.1351999E+02  0.1049000E+01 0  0.2000000E+00
 0.7715000E-01  0.1308429E+02  0.1049000E+01 0  0.2000000E+00
 0.7800000E-01  0.1263502E+02  0.1049000E+01 0  0.2000000E+00
 0.7885000E-01  0.1218351E+02  0.1049000E+01 0  0.2000000E+00
 0.7970000E-01  0.1177335E+02  0.1049000E+01 0  0.2000000E+00
 0.8055000E-01  0.1138936E+02  0.1049000E+01 0  0.2000000E+00
 0.8140000E-01  0.1099583E+02  0.1049000E+01 0  0.2000000E+00
 0.8225000E-01  0.1059219E+02  0.1049000E+01 0  0.2000000E+00
 0.8310000E-01  0.1017846E+02  0.1049000E+01 0  0.2000000E+00
 0.8395000E-01  0.9754640E+01  0.1049000E+01 0  0.2000000E+00
 0.8480000E-01  0.9320766E+01  0.1049000E+01 0  0.2000000E+00
 0.8565000E-01  0.8876855E+01  0.1049000E+01 0  0.2000000E+00
 0.8650000E-01  0.8422926E+01  0.1049000E+01 0  0.2000000E+00
 0.8735000E-01  0.7959001E+01  0.1049000E+01 0  0.2000000E+00
 0.8820000E-01  0.7485102E+01  0.1049000E+01 0  0.2000000E+00
 0.8905000E-01  0.7001252E+01  0.1049000E+01 0  0.2000000E+00
 0.8990000E-01  0.6507473E+01  0.1049000E+01 0  0.2000000E+00
 0.9075000E-01  0.6003788E+01  0.1049000E+01 0  0.2000000E+00
 0.9160000E-01  0.5490220E+01  0.1049000E+01 0  0.2000000E+00
 0.9245000E-01  0.0000000E+00  0.1049000E+01 0  0.2000000E+00
 0.9330000E-01  0.0000000E+00  0.1049000E+01 0  0.2000000E+00
 0.9415000E-01  0.0000000E+00  0.1049000E+01 0  0.2000000E+00
 0.9500000E-01  0.0000000E+00  0.1049000E+01 0  0.2000000E+00
# units diff cross section [10^{-38} cm^2/GeV/num_of_active_nucleons (N or Z)]
