# QE from  Nieves et al.,PRC 70,055503 (2004) & arXiv:1106.5374 [hep-ph]
# ein (gev) = 0.500E+01
# units diff cross section [10^{-38} cm^2/GeV
# Tlepton (GeV), dsigma/dTlepton, MA(GeV),  RPA (0/1), Eneutrino (GeV)
 0.5885000E-01  0.0000000E+00  0.1049000E+01 1  0.5000000E+01
 0.1077000E+00  0.0000000E+00  0.1049000E+01 1  0.5000000E+01
 0.1565500E+00  0.0000000E+00  0.1049000E+01 1  0.5000000E+01
 0.2054000E+00  0.0000000E+00  0.1049000E+01 1  0.5000000E+01
 0.2542500E+00  0.6468195E-03  0.1049000E+01 1  0.5000000E+01
 0.3031000E+00  0.3158758E-02  0.1049000E+01 1  0.5000000E+01
 0.3519500E+00  0.6315047E-02  0.1049000E+01 1  0.5000000E+01
 0.4008000E+00  0.8082661E-02  0.1049000E+01 1  0.5000000E+01
 0.4496500E+00  0.8809356E-02  0.1049000E+01 1  0.5000000E+01
 0.4985000E+00  0.9183356E-02  0.1049000E+01 1  0.5000000E+01
 0.5473500E+00  0.9547092E-02  0.1049000E+01 1  0.5000000E+01
 0.5962000E+00  0.9920952E-02  0.1049000E+01 1  0.5000000E+01
 0.6450500E+00  0.1032768E-01  0.1049000E+01 1  0.5000000E+01
 0.6939000E+00  0.1074440E-01  0.1049000E+01 1  0.5000000E+01
 0.7427500E+00  0.1118998E-01  0.1049000E+01 1  0.5000000E+01
 0.7916000E+00  0.1166210E-01  0.1049000E+01 1  0.5000000E+01
 0.8404500E+00  0.1213531E-01  0.1049000E+01 1  0.5000000E+01
 0.8893000E+00  0.1264197E-01  0.1049000E+01 1  0.5000000E+01
 0.9381500E+00  0.1317971E-01  0.1049000E+01 1  0.5000000E+01
 0.9870000E+00  0.1374785E-01  0.1049000E+01 1  0.5000000E+01
 0.1035850E+01  0.1437158E-01  0.1049000E+01 1  0.5000000E+01
 0.1084700E+01  0.1502468E-01  0.1049000E+01 1  0.5000000E+01
 0.1133550E+01  0.1570619E-01  0.1049000E+01 1  0.5000000E+01
 0.1182400E+01  0.1641883E-01  0.1049000E+01 1  0.5000000E+01
 0.1231250E+01  0.1719558E-01  0.1049000E+01 1  0.5000000E+01
 0.1280100E+01  0.1801822E-01  0.1049000E+01 1  0.5000000E+01
 0.1328950E+01  0.1886184E-01  0.1049000E+01 1  0.5000000E+01
 0.1377800E+01  0.1971681E-01  0.1049000E+01 1  0.5000000E+01
 0.1426650E+01  0.2061646E-01  0.1049000E+01 1  0.5000000E+01
 0.1475500E+01  0.2172385E-01  0.1049000E+01 1  0.5000000E+01
 0.1524350E+01  0.2287024E-01  0.1049000E+01 1  0.5000000E+01
 0.1573200E+01  0.2397487E-01  0.1049000E+01 1  0.5000000E+01
 0.1622050E+01  0.2512797E-01  0.1049000E+01 1  0.5000000E+01
 0.1670900E+01  0.2649656E-01  0.1049000E+01 1  0.5000000E+01
 0.1719750E+01  0.2794560E-01  0.1049000E+01 1  0.5000000E+01
 0.1768600E+01  0.2931200E-01  0.1049000E+01 1  0.5000000E+01
 0.1817450E+01  0.3074674E-01  0.1049000E+01 1  0.5000000E+01
 0.1866300E+01  0.3286245E-01  0.1049000E+01 1  0.5000000E+01
 0.1915150E+01  0.3445762E-01  0.1049000E+01 1  0.5000000E+01
 0.1964000E+01  0.3623528E-01  0.1049000E+01 1  0.5000000E+01
 0.2012850E+01  0.3883109E-01  0.1049000E+01 1  0.5000000E+01
 0.2061700E+01  0.4089972E-01  0.1049000E+01 1  0.5000000E+01
 0.2110550E+01  0.4302826E-01  0.1049000E+01 1  0.5000000E+01
 0.2159400E+01  0.4537328E-01  0.1049000E+01 1  0.5000000E+01
 0.2208250E+01  0.4875452E-01  0.1049000E+01 1  0.5000000E+01
 0.2257100E+01  0.5160394E-01  0.1049000E+01 1  0.5000000E+01
 0.2305950E+01  0.5501500E-01  0.1049000E+01 1  0.5000000E+01
 0.2354800E+01  0.5866000E-01  0.1049000E+01 1  0.5000000E+01
 0.2403650E+01  0.6229968E-01  0.1049000E+01 1  0.5000000E+01
 0.2452500E+01  0.6536744E-01  0.1049000E+01 1  0.5000000E+01
 0.2501350E+01  0.7046804E-01  0.1049000E+01 1  0.5000000E+01
 0.2550200E+01  0.7616600E-01  0.1049000E+01 1  0.5000000E+01
 0.2599050E+01  0.8331370E-01  0.1049000E+01 1  0.5000000E+01
 0.2647900E+01  0.8710266E-01  0.1049000E+01 1  0.5000000E+01
 0.2696750E+01  0.9042759E-01  0.1049000E+01 1  0.5000000E+01
 0.2745600E+01  0.9821953E-01  0.1049000E+01 1  0.5000000E+01
 0.2794450E+01  0.1083391E+00  0.1049000E+01 1  0.5000000E+01
 0.2843300E+01  0.1186230E+00  0.1049000E+01 1  0.5000000E+01
 0.2892150E+01  0.1292636E+00  0.1049000E+01 1  0.5000000E+01
 0.2941000E+01  0.1352645E+00  0.1049000E+01 1  0.5000000E+01
 0.2989850E+01  0.1431257E+00  0.1049000E+01 1  0.5000000E+01
 0.3038700E+01  0.1533549E+00  0.1049000E+01 1  0.5000000E+01
 0.3087550E+01  0.1710749E+00  0.1049000E+01 1  0.5000000E+01
 0.3136400E+01  0.1960754E+00  0.1049000E+01 1  0.5000000E+01
 0.3185250E+01  0.2119605E+00  0.1049000E+01 1  0.5000000E+01
 0.3234100E+01  0.2268314E+00  0.1049000E+01 1  0.5000000E+01
 0.3282950E+01  0.2442032E+00  0.1049000E+01 1  0.5000000E+01
 0.3331800E+01  0.2643679E+00  0.1049000E+01 1  0.5000000E+01
 0.3380650E+01  0.2890660E+00  0.1049000E+01 1  0.5000000E+01
 0.3429500E+01  0.3321641E+00  0.1049000E+01 1  0.5000000E+01
 0.3478350E+01  0.3771983E+00  0.1049000E+01 1  0.5000000E+01
 0.3527200E+01  0.4098708E+00  0.1049000E+01 1  0.5000000E+01
 0.3576050E+01  0.4569196E+00  0.1049000E+01 1  0.5000000E+01
 0.3624900E+01  0.5083363E+00  0.1049000E+01 1  0.5000000E+01
 0.3673750E+01  0.5721419E+00  0.1049000E+01 1  0.5000000E+01
 0.3722600E+01  0.6526122E+00  0.1049000E+01 1  0.5000000E+01
 0.3771450E+01  0.7225160E+00  0.1049000E+01 1  0.5000000E+01
 0.3820300E+01  0.7893016E+00  0.1049000E+01 1  0.5000000E+01
 0.3869150E+01  0.8651064E+00  0.1049000E+01 1  0.5000000E+01
 0.3918000E+01  0.1015506E+01  0.1049000E+01 1  0.5000000E+01
 0.3966850E+01  0.1267889E+01  0.1049000E+01 1  0.5000000E+01
 0.4015700E+01  0.1574895E+01  0.1049000E+01 1  0.5000000E+01
 0.4064550E+01  0.1816047E+01  0.1049000E+01 1  0.5000000E+01
 0.4113400E+01  0.1997904E+01  0.1049000E+01 1  0.5000000E+01
 0.4162250E+01  0.2016163E+01  0.1049000E+01 1  0.5000000E+01
 0.4211100E+01  0.1993546E+01  0.1049000E+01 1  0.5000000E+01
 0.4259950E+01  0.2396503E+01  0.1049000E+01 1  0.5000000E+01
 0.4308800E+01  0.3368940E+01  0.1049000E+01 1  0.5000000E+01
 0.4357650E+01  0.4421148E+01  0.1049000E+01 1  0.5000000E+01
 0.4406500E+01  0.5194671E+01  0.1049000E+01 1  0.5000000E+01
 0.4455350E+01  0.5697353E+01  0.1049000E+01 1  0.5000000E+01
 0.4504200E+01  0.5004436E+01  0.1049000E+01 1  0.5000000E+01
 0.4553050E+01  0.5075876E+01  0.1049000E+01 1  0.5000000E+01
 0.4601900E+01  0.7016156E+01  0.1049000E+01 1  0.5000000E+01
 0.4650750E+01  0.1086625E+02  0.1049000E+01 1  0.5000000E+01
 0.4699600E+01  0.1307897E+02  0.1049000E+01 1  0.5000000E+01
 0.4748450E+01  0.8665686E+01  0.1049000E+01 1  0.5000000E+01
 0.4797300E+01  0.1227236E+02  0.1049000E+01 1  0.5000000E+01
 0.4846150E+01  0.1448396E+02  0.1049000E+01 1  0.5000000E+01
 0.4895000E+01  0.0000000E+00  0.1049000E+01 1  0.5000000E+01
# units diff cross section [10^{-38} cm^2/GeV/num_of_active_nucleons (N or Z)]
