# QE from  Nieves et al.,PRC 70,055503 (2004) & arXiv:1106.5374 [hep-ph]
# ein (gev) = 0.200E+00
# units diff cross section [10^{-38} cm^2/GeV
# Tlepton (GeV), dsigma/dTlepton, MA(GeV),  RPA (0/1), Eneutrino (GeV)
 0.1085000E-01  0.2901585E-01  0.1049000E+01 0  0.2000000E+00
 0.1170000E-01  0.3716832E-01  0.1049000E+01 0  0.2000000E+00
 0.1255000E-01  0.4577391E-01  0.1049000E+01 0  0.2000000E+00
 0.1340000E-01  0.5477659E-01  0.1049000E+01 0  0.2000000E+00
 0.1425000E-01  0.6414796E-01  0.1049000E+01 0  0.2000000E+00
 0.1510000E-01  0.7386137E-01  0.1049000E+01 0  0.2000000E+00
 0.1595000E-01  0.8389163E-01  0.1049000E+01 0  0.2000000E+00
 0.1680000E-01  0.9469094E-01  0.1049000E+01 0  0.2000000E+00
 0.1765000E-01  0.1081212E+00  0.1049000E+01 0  0.2000000E+00
 0.1850000E-01  0.1241475E+00  0.1049000E+01 0  0.2000000E+00
 0.1935000E-01  0.1409865E+00  0.1049000E+01 0  0.2000000E+00
 0.2020000E-01  0.1581921E+00  0.1049000E+01 0  0.2000000E+00
 0.2105000E-01  0.1757278E+00  0.1049000E+01 0  0.2000000E+00
 0.2190000E-01  0.1935581E+00  0.1049000E+01 0  0.2000000E+00
 0.2275000E-01  0.2116486E+00  0.1049000E+01 0  0.2000000E+00
 0.2360000E-01  0.2299657E+00  0.1049000E+01 0  0.2000000E+00
 0.2445000E-01  0.2484875E+00  0.1049000E+01 0  0.2000000E+00
 0.2530000E-01  0.2689480E+00  0.1049000E+01 0  0.2000000E+00
 0.2615000E-01  0.2925705E+00  0.1049000E+01 0  0.2000000E+00
 0.2700000E-01  0.3186340E+00  0.1049000E+01 0  0.2000000E+00
 0.2785000E-01  0.3449682E+00  0.1049000E+01 0  0.2000000E+00
 0.2870000E-01  0.3713625E+00  0.1049000E+01 0  0.2000000E+00
 0.2955000E-01  0.3977694E+00  0.1049000E+01 0  0.2000000E+00
 0.3040000E-01  0.4241427E+00  0.1049000E+01 0  0.2000000E+00
 0.3125000E-01  0.4504367E+00  0.1049000E+01 0  0.2000000E+00
 0.3210000E-01  0.4766069E+00  0.1049000E+01 0  0.2000000E+00
 0.3295000E-01  0.5038988E+00  0.1049000E+01 0  0.2000000E+00
 0.3380000E-01  0.5339918E+00  0.1049000E+01 0  0.2000000E+00
 0.3465000E-01  0.5664964E+00  0.1049000E+01 0  0.2000000E+00
 0.3550000E-01  0.5990570E+00  0.1049000E+01 0  0.2000000E+00
 0.3635000E-01  0.6311011E+00  0.1049000E+01 0  0.2000000E+00
 0.3720000E-01  0.6625682E+00  0.1049000E+01 0  0.2000000E+00
 0.3805000E-01  0.6933989E+00  0.1049000E+01 0  0.2000000E+00
 0.3890000E-01  0.7239136E+00  0.1049000E+01 0  0.2000000E+00
 0.3975000E-01  0.7559504E+00  0.1049000E+01 0  0.2000000E+00
 0.4060000E-01  0.7886014E+00  0.1049000E+01 0  0.2000000E+00
 0.4145000E-01  0.8192477E+00  0.1049000E+01 0  0.2000000E+00
 0.4230000E-01  0.8482753E+00  0.1049000E+01 0  0.2000000E+00
 0.4315000E-01  0.8759762E+00  0.1049000E+01 0  0.2000000E+00
 0.4400000E-01  0.9016644E+00  0.1049000E+01 0  0.2000000E+00
 0.4485000E-01  0.9252238E+00  0.1049000E+01 0  0.2000000E+00
 0.4570000E-01  0.9475857E+00  0.1049000E+01 0  0.2000000E+00
 0.4655000E-01  0.9684000E+00  0.1049000E+01 0  0.2000000E+00
 0.4740000E-01  0.9876943E+00  0.1049000E+01 0  0.2000000E+00
 0.4825000E-01  0.1005059E+01  0.1049000E+01 0  0.2000000E+00
 0.4910000E-01  0.1019485E+01  0.1049000E+01 0  0.2000000E+00
 0.4995000E-01  0.1029653E+01  0.1049000E+01 0  0.2000000E+00
 0.5080000E-01  0.1035040E+01  0.1049000E+01 0  0.2000000E+00
 0.5165000E-01  0.1031581E+01  0.1049000E+01 0  0.2000000E+00
 0.5250000E-01  0.1023074E+01  0.1049000E+01 0  0.2000000E+00
 0.5335000E-01  0.1012347E+01  0.1049000E+01 0  0.2000000E+00
 0.5420000E-01  0.9995222E+00  0.1049000E+01 0  0.2000000E+00
 0.5505000E-01  0.9840011E+00  0.1049000E+01 0  0.2000000E+00
 0.5590000E-01  0.9667274E+00  0.1049000E+01 0  0.2000000E+00
 0.5675000E-01  0.9489298E+00  0.1049000E+01 0  0.2000000E+00
 0.5760000E-01  0.9300802E+00  0.1049000E+01 0  0.2000000E+00
 0.5845000E-01  0.9086956E+00  0.1049000E+01 0  0.2000000E+00
 0.5930000E-01  0.8847036E+00  0.1049000E+01 0  0.2000000E+00
 0.6015000E-01  0.8583698E+00  0.1049000E+01 0  0.2000000E+00
 0.6100000E-01  0.8326568E+00  0.1049000E+01 0  0.2000000E+00
 0.6185000E-01  0.8085424E+00  0.1049000E+01 0  0.2000000E+00
 0.6270000E-01  0.7806640E+00  0.1049000E+01 0  0.2000000E+00
 0.6355000E-01  0.7441698E+00  0.1049000E+01 0  0.2000000E+00
 0.6440000E-01  0.7055670E+00  0.1049000E+01 0  0.2000000E+00
 0.6525000E-01  0.6649537E+00  0.1049000E+01 0  0.2000000E+00
 0.6610000E-01  0.6223162E+00  0.1049000E+01 0  0.2000000E+00
 0.6695000E-01  0.5776413E+00  0.1049000E+01 0  0.2000000E+00
 0.6780000E-01  0.5314973E+00  0.1049000E+01 0  0.2000000E+00
 0.6865000E-01  0.4884000E+00  0.1049000E+01 0  0.2000000E+00
 0.6950000E-01  0.4490450E+00  0.1049000E+01 0  0.2000000E+00
 0.7035000E-01  0.4091708E+00  0.1049000E+01 0  0.2000000E+00
 0.7120000E-01  0.3679343E+00  0.1049000E+01 0  0.2000000E+00
 0.7205000E-01  0.3253328E+00  0.1049000E+01 0  0.2000000E+00
 0.7290000E-01  0.2813640E+00  0.1049000E+01 0  0.2000000E+00
 0.7375000E-01  0.2360258E+00  0.1049000E+01 0  0.2000000E+00
 0.7460000E-01  0.1893165E+00  0.1049000E+01 0  0.2000000E+00
 0.7545000E-01  0.1411444E+00  0.1049000E+01 0  0.2000000E+00
 0.7630000E-01  0.8758046E-01  0.1049000E+01 0  0.2000000E+00
 0.7715000E-01  0.2705964E-01  0.1049000E+01 0  0.2000000E+00
 0.7800000E-01  0.0000000E+00  0.1049000E+01 0  0.2000000E+00
 0.7885000E-01  0.0000000E+00  0.1049000E+01 0  0.2000000E+00
 0.7970000E-01  0.0000000E+00  0.1049000E+01 0  0.2000000E+00
 0.8055000E-01  0.0000000E+00  0.1049000E+01 0  0.2000000E+00
 0.8140000E-01  0.0000000E+00  0.1049000E+01 0  0.2000000E+00
 0.8225000E-01  0.0000000E+00  0.1049000E+01 0  0.2000000E+00
 0.8310000E-01  0.0000000E+00  0.1049000E+01 0  0.2000000E+00
 0.8395000E-01  0.0000000E+00  0.1049000E+01 0  0.2000000E+00
 0.8480000E-01  0.0000000E+00  0.1049000E+01 0  0.2000000E+00
 0.8565000E-01  0.0000000E+00  0.1049000E+01 0  0.2000000E+00
 0.8650000E-01  0.0000000E+00  0.1049000E+01 0  0.2000000E+00
 0.8735000E-01  0.0000000E+00  0.1049000E+01 0  0.2000000E+00
 0.8820000E-01  0.0000000E+00  0.1049000E+01 0  0.2000000E+00
 0.8905000E-01  0.0000000E+00  0.1049000E+01 0  0.2000000E+00
 0.8990000E-01  0.0000000E+00  0.1049000E+01 0  0.2000000E+00
 0.9075000E-01  0.0000000E+00  0.1049000E+01 0  0.2000000E+00
 0.9160000E-01  0.0000000E+00  0.1049000E+01 0  0.2000000E+00
 0.9245000E-01  0.0000000E+00  0.1049000E+01 0  0.2000000E+00
 0.9330000E-01  0.0000000E+00  0.1049000E+01 0  0.2000000E+00
 0.9415000E-01  0.0000000E+00  0.1049000E+01 0  0.2000000E+00
 0.9500000E-01  0.0000000E+00  0.1049000E+01 0  0.2000000E+00
# units diff cross section [10^{-38} cm^2/GeV/num_of_active_nucleons (N or Z)]
