# QE from  Nieves et al.,PRC 70,055503 (2004) & arXiv:1106.5374 [hep-ph]
# ein (gev) = 0.200E+00
# units diff cross section [10^{-38} cm^2/GeV
# Tlepton (GeV), dsigma/dTlepton, MA(GeV),  RPA (0/1), Eneutrino (GeV)
 0.1085000E-01  0.0000000E+00  0.1049000E+01 1  0.2000000E+00
 0.1170000E-01  0.0000000E+00  0.1049000E+01 1  0.2000000E+00
 0.1255000E-01  0.0000000E+00  0.1049000E+01 1  0.2000000E+00
 0.1340000E-01  0.0000000E+00  0.1049000E+01 1  0.2000000E+00
 0.1425000E-01  0.0000000E+00  0.1049000E+01 1  0.2000000E+00
 0.1510000E-01  0.0000000E+00  0.1049000E+01 1  0.2000000E+00
 0.1595000E-01  0.0000000E+00  0.1049000E+01 1  0.2000000E+00
 0.1680000E-01  0.0000000E+00  0.1049000E+01 1  0.2000000E+00
 0.1765000E-01  0.0000000E+00  0.1049000E+01 1  0.2000000E+00
 0.1850000E-01  0.0000000E+00  0.1049000E+01 1  0.2000000E+00
 0.1935000E-01  0.0000000E+00  0.1049000E+01 1  0.2000000E+00
 0.2020000E-01  0.0000000E+00  0.1049000E+01 1  0.2000000E+00
 0.2105000E-01  0.0000000E+00  0.1049000E+01 1  0.2000000E+00
 0.2190000E-01  0.0000000E+00  0.1049000E+01 1  0.2000000E+00
 0.2275000E-01  0.0000000E+00  0.1049000E+01 1  0.2000000E+00
 0.2360000E-01  0.0000000E+00  0.1049000E+01 1  0.2000000E+00
 0.2445000E-01  0.3984120E-04  0.1049000E+01 1  0.2000000E+00
 0.2530000E-01  0.6067983E-03  0.1049000E+01 1  0.2000000E+00
 0.2615000E-01  0.2018158E-02  0.1049000E+01 1  0.2000000E+00
 0.2700000E-01  0.4502343E-02  0.1049000E+01 1  0.2000000E+00
 0.2785000E-01  0.8891425E-02  0.1049000E+01 1  0.2000000E+00
 0.2870000E-01  0.1549397E-01  0.1049000E+01 1  0.2000000E+00
 0.2955000E-01  0.2428351E-01  0.1049000E+01 1  0.2000000E+00
 0.3040000E-01  0.3505668E-01  0.1049000E+01 1  0.2000000E+00
 0.3125000E-01  0.4739980E-01  0.1049000E+01 1  0.2000000E+00
 0.3210000E-01  0.6033086E-01  0.1049000E+01 1  0.2000000E+00
 0.3295000E-01  0.7443260E-01  0.1049000E+01 1  0.2000000E+00
 0.3380000E-01  0.9013573E-01  0.1049000E+01 1  0.2000000E+00
 0.3465000E-01  0.1064960E+00  0.1049000E+01 1  0.2000000E+00
 0.3550000E-01  0.1231433E+00  0.1049000E+01 1  0.2000000E+00
 0.3635000E-01  0.1398662E+00  0.1049000E+01 1  0.2000000E+00
 0.3720000E-01  0.1565692E+00  0.1049000E+01 1  0.2000000E+00
 0.3805000E-01  0.1732184E+00  0.1049000E+01 1  0.2000000E+00
 0.3890000E-01  0.1890628E+00  0.1049000E+01 1  0.2000000E+00
 0.3975000E-01  0.2024530E+00  0.1049000E+01 1  0.2000000E+00
 0.4060000E-01  0.2156102E+00  0.1049000E+01 1  0.2000000E+00
 0.4145000E-01  0.2294374E+00  0.1049000E+01 1  0.2000000E+00
 0.4230000E-01  0.2445048E+00  0.1049000E+01 1  0.2000000E+00
 0.4315000E-01  0.2612332E+00  0.1049000E+01 1  0.2000000E+00
 0.4400000E-01  0.2797899E+00  0.1049000E+01 1  0.2000000E+00
 0.4485000E-01  0.3000859E+00  0.1049000E+01 1  0.2000000E+00
 0.4570000E-01  0.3208153E+00  0.1049000E+01 1  0.2000000E+00
 0.4655000E-01  0.3382939E+00  0.1049000E+01 1  0.2000000E+00
 0.4740000E-01  0.3517479E+00  0.1049000E+01 1  0.2000000E+00
 0.4825000E-01  0.3640032E+00  0.1049000E+01 1  0.2000000E+00
 0.4910000E-01  0.3764804E+00  0.1049000E+01 1  0.2000000E+00
 0.4995000E-01  0.3898943E+00  0.1049000E+01 1  0.2000000E+00
 0.5080000E-01  0.4047785E+00  0.1049000E+01 1  0.2000000E+00
 0.5165000E-01  0.4218192E+00  0.1049000E+01 1  0.2000000E+00
 0.5250000E-01  0.4409735E+00  0.1049000E+01 1  0.2000000E+00
 0.5335000E-01  0.4583799E+00  0.1049000E+01 1  0.2000000E+00
 0.5420000E-01  0.4722195E+00  0.1049000E+01 1  0.2000000E+00
 0.5505000E-01  0.4844993E+00  0.1049000E+01 1  0.2000000E+00
 0.5590000E-01  0.4962221E+00  0.1049000E+01 1  0.2000000E+00
 0.5675000E-01  0.5089942E+00  0.1049000E+01 1  0.2000000E+00
 0.5760000E-01  0.5233921E+00  0.1049000E+01 1  0.2000000E+00
 0.5845000E-01  0.5387859E+00  0.1049000E+01 1  0.2000000E+00
 0.5930000E-01  0.5521634E+00  0.1049000E+01 1  0.2000000E+00
 0.6015000E-01  0.5639350E+00  0.1049000E+01 1  0.2000000E+00
 0.6100000E-01  0.5739727E+00  0.1049000E+01 1  0.2000000E+00
 0.6185000E-01  0.5796099E+00  0.1049000E+01 1  0.2000000E+00
 0.6270000E-01  0.5836422E+00  0.1049000E+01 1  0.2000000E+00
 0.6355000E-01  0.5899340E+00  0.1049000E+01 1  0.2000000E+00
 0.6440000E-01  0.5940392E+00  0.1049000E+01 1  0.2000000E+00
 0.6525000E-01  0.5960243E+00  0.1049000E+01 1  0.2000000E+00
 0.6610000E-01  0.5956347E+00  0.1049000E+01 1  0.2000000E+00
 0.6695000E-01  0.5899330E+00  0.1049000E+01 1  0.2000000E+00
 0.6780000E-01  0.5758564E+00  0.1049000E+01 1  0.2000000E+00
 0.6865000E-01  0.5485494E+00  0.1049000E+01 1  0.2000000E+00
 0.6950000E-01  0.5037164E+00  0.1049000E+01 1  0.2000000E+00
 0.7035000E-01  0.4554918E+00  0.1049000E+01 1  0.2000000E+00
 0.7120000E-01  0.4043725E+00  0.1049000E+01 1  0.2000000E+00
 0.7205000E-01  0.3525261E+00  0.1049000E+01 1  0.2000000E+00
 0.7290000E-01  0.3012279E+00  0.1049000E+01 1  0.2000000E+00
 0.7375000E-01  0.2507586E+00  0.1049000E+01 1  0.2000000E+00
 0.7460000E-01  0.1967444E+00  0.1049000E+01 1  0.2000000E+00
 0.7545000E-01  0.1343279E+00  0.1049000E+01 1  0.2000000E+00
 0.7630000E-01  0.7570183E-01  0.1049000E+01 1  0.2000000E+00
 0.7715000E-01  0.2287434E-01  0.1049000E+01 1  0.2000000E+00
 0.7800000E-01  0.0000000E+00  0.1049000E+01 1  0.2000000E+00
 0.7885000E-01  0.0000000E+00  0.1049000E+01 1  0.2000000E+00
 0.7970000E-01  0.0000000E+00  0.1049000E+01 1  0.2000000E+00
 0.8055000E-01  0.0000000E+00  0.1049000E+01 1  0.2000000E+00
 0.8140000E-01  0.0000000E+00  0.1049000E+01 1  0.2000000E+00
 0.8225000E-01  0.0000000E+00  0.1049000E+01 1  0.2000000E+00
 0.8310000E-01  0.0000000E+00  0.1049000E+01 1  0.2000000E+00
 0.8395000E-01  0.0000000E+00  0.1049000E+01 1  0.2000000E+00
 0.8480000E-01  0.0000000E+00  0.1049000E+01 1  0.2000000E+00
 0.8565000E-01  0.0000000E+00  0.1049000E+01 1  0.2000000E+00
 0.8650000E-01  0.0000000E+00  0.1049000E+01 1  0.2000000E+00
 0.8735000E-01  0.0000000E+00  0.1049000E+01 1  0.2000000E+00
 0.8820000E-01  0.0000000E+00  0.1049000E+01 1  0.2000000E+00
 0.8905000E-01  0.0000000E+00  0.1049000E+01 1  0.2000000E+00
 0.8990000E-01  0.0000000E+00  0.1049000E+01 1  0.2000000E+00
 0.9075000E-01  0.0000000E+00  0.1049000E+01 1  0.2000000E+00
 0.9160000E-01  0.0000000E+00  0.1049000E+01 1  0.2000000E+00
 0.9245000E-01  0.0000000E+00  0.1049000E+01 1  0.2000000E+00
 0.9330000E-01  0.0000000E+00  0.1049000E+01 1  0.2000000E+00
 0.9415000E-01  0.0000000E+00  0.1049000E+01 1  0.2000000E+00
 0.9500000E-01  0.0000000E+00  0.1049000E+01 1  0.2000000E+00
# units diff cross section [10^{-38} cm^2/GeV/num_of_active_nucleons (N or Z)]
