# QE from  Nieves et al.,PRC 70,055503 (2004) & arXiv:1106.5374 [hep-ph]
# ein (gev) = 0.200E+00
# units diff cross section [10^{-38} cm^2/GeV
# Tlepton (GeV), dsigma/dTlepton, MA(GeV),  RPA (0/1), Eneutrino (GeV)
 0.1085000E-01  0.0000000E+00  0.1049000E+01 1  0.2000000E+00
 0.1170000E-01  0.1033970E-03  0.1049000E+01 1  0.2000000E+00
 0.1255000E-01  0.8014118E-03  0.1049000E+01 1  0.2000000E+00
 0.1340000E-01  0.2307937E-02  0.1049000E+01 1  0.2000000E+00
 0.1425000E-01  0.4896221E-02  0.1049000E+01 1  0.2000000E+00
 0.1510000E-01  0.9281158E-02  0.1049000E+01 1  0.2000000E+00
 0.1595000E-01  0.1519967E-01  0.1049000E+01 1  0.2000000E+00
 0.1680000E-01  0.2245113E-01  0.1049000E+01 1  0.2000000E+00
 0.1765000E-01  0.3072426E-01  0.1049000E+01 1  0.2000000E+00
 0.1850000E-01  0.3906579E-01  0.1049000E+01 1  0.2000000E+00
 0.1935000E-01  0.4701984E-01  0.1049000E+01 1  0.2000000E+00
 0.2020000E-01  0.5554884E-01  0.1049000E+01 1  0.2000000E+00
 0.2105000E-01  0.6540149E-01  0.1049000E+01 1  0.2000000E+00
 0.2190000E-01  0.7670972E-01  0.1049000E+01 1  0.2000000E+00
 0.2275000E-01  0.8954002E-01  0.1049000E+01 1  0.2000000E+00
 0.2360000E-01  0.1029083E+00  0.1049000E+01 1  0.2000000E+00
 0.2445000E-01  0.1155561E+00  0.1049000E+01 1  0.2000000E+00
 0.2530000E-01  0.1271092E+00  0.1049000E+01 1  0.2000000E+00
 0.2615000E-01  0.1373263E+00  0.1049000E+01 1  0.2000000E+00
 0.2700000E-01  0.1461097E+00  0.1049000E+01 1  0.2000000E+00
 0.2785000E-01  0.1552568E+00  0.1049000E+01 1  0.2000000E+00
 0.2870000E-01  0.1663886E+00  0.1049000E+01 1  0.2000000E+00
 0.2955000E-01  0.1798493E+00  0.1049000E+01 1  0.2000000E+00
 0.3040000E-01  0.1958253E+00  0.1049000E+01 1  0.2000000E+00
 0.3125000E-01  0.2129885E+00  0.1049000E+01 1  0.2000000E+00
 0.3210000E-01  0.2292990E+00  0.1049000E+01 1  0.2000000E+00
 0.3295000E-01  0.2443329E+00  0.1049000E+01 1  0.2000000E+00
 0.3380000E-01  0.2578178E+00  0.1049000E+01 1  0.2000000E+00
 0.3465000E-01  0.2696116E+00  0.1049000E+01 1  0.2000000E+00
 0.3550000E-01  0.2797008E+00  0.1049000E+01 1  0.2000000E+00
 0.3635000E-01  0.2902974E+00  0.1049000E+01 1  0.2000000E+00
 0.3720000E-01  0.3031437E+00  0.1049000E+01 1  0.2000000E+00
 0.3805000E-01  0.3184637E+00  0.1049000E+01 1  0.2000000E+00
 0.3890000E-01  0.3363439E+00  0.1049000E+01 1  0.2000000E+00
 0.3975000E-01  0.3545783E+00  0.1049000E+01 1  0.2000000E+00
 0.4060000E-01  0.3713889E+00  0.1049000E+01 1  0.2000000E+00
 0.4145000E-01  0.3865264E+00  0.1049000E+01 1  0.2000000E+00
 0.4230000E-01  0.3998254E+00  0.1049000E+01 1  0.2000000E+00
 0.4315000E-01  0.4111073E+00  0.1049000E+01 1  0.2000000E+00
 0.4400000E-01  0.4219162E+00  0.1049000E+01 1  0.2000000E+00
 0.4485000E-01  0.4345551E+00  0.1049000E+01 1  0.2000000E+00
 0.4570000E-01  0.4490280E+00  0.1049000E+01 1  0.2000000E+00
 0.4655000E-01  0.4646459E+00  0.1049000E+01 1  0.2000000E+00
 0.4740000E-01  0.4796798E+00  0.1049000E+01 1  0.2000000E+00
 0.4825000E-01  0.4930759E+00  0.1049000E+01 1  0.2000000E+00
 0.4910000E-01  0.5045286E+00  0.1049000E+01 1  0.2000000E+00
 0.4995000E-01  0.5152479E+00  0.1049000E+01 1  0.2000000E+00
 0.5080000E-01  0.5266084E+00  0.1049000E+01 1  0.2000000E+00
 0.5165000E-01  0.5382222E+00  0.1049000E+01 1  0.2000000E+00
 0.5250000E-01  0.5484389E+00  0.1049000E+01 1  0.2000000E+00
 0.5335000E-01  0.5573058E+00  0.1049000E+01 1  0.2000000E+00
 0.5420000E-01  0.5654684E+00  0.1049000E+01 1  0.2000000E+00
 0.5505000E-01  0.5730917E+00  0.1049000E+01 1  0.2000000E+00
 0.5590000E-01  0.5798849E+00  0.1049000E+01 1  0.2000000E+00
 0.5675000E-01  0.5855258E+00  0.1049000E+01 1  0.2000000E+00
 0.5760000E-01  0.5887089E+00  0.1049000E+01 1  0.2000000E+00
 0.5845000E-01  0.5894293E+00  0.1049000E+01 1  0.2000000E+00
 0.5930000E-01  0.5859651E+00  0.1049000E+01 1  0.2000000E+00
 0.6015000E-01  0.5764208E+00  0.1049000E+01 1  0.2000000E+00
 0.6100000E-01  0.5578101E+00  0.1049000E+01 1  0.2000000E+00
 0.6185000E-01  0.5347556E+00  0.1049000E+01 1  0.2000000E+00
 0.6270000E-01  0.5099933E+00  0.1049000E+01 1  0.2000000E+00
 0.6355000E-01  0.4838121E+00  0.1049000E+01 1  0.2000000E+00
 0.6440000E-01  0.4561165E+00  0.1049000E+01 1  0.2000000E+00
 0.6525000E-01  0.4280074E+00  0.1049000E+01 1  0.2000000E+00
 0.6610000E-01  0.4003178E+00  0.1049000E+01 1  0.2000000E+00
 0.6695000E-01  0.3729830E+00  0.1049000E+01 1  0.2000000E+00
 0.6780000E-01  0.3438885E+00  0.1049000E+01 1  0.2000000E+00
 0.6865000E-01  0.3128743E+00  0.1049000E+01 1  0.2000000E+00
 0.6950000E-01  0.2831508E+00  0.1049000E+01 1  0.2000000E+00
 0.7035000E-01  0.2546024E+00  0.1049000E+01 1  0.2000000E+00
 0.7120000E-01  0.2234614E+00  0.1049000E+01 1  0.2000000E+00
 0.7205000E-01  0.1920745E+00  0.1049000E+01 1  0.2000000E+00
 0.7290000E-01  0.1604012E+00  0.1049000E+01 1  0.2000000E+00
 0.7375000E-01  0.1280911E+00  0.1049000E+01 1  0.2000000E+00
 0.7460000E-01  0.9489853E-01  0.1049000E+01 1  0.2000000E+00
 0.7545000E-01  0.6184118E-01  0.1049000E+01 1  0.2000000E+00
 0.7630000E-01  0.3371549E-01  0.1049000E+01 1  0.2000000E+00
 0.7715000E-01  0.1011688E-01  0.1049000E+01 1  0.2000000E+00
 0.7800000E-01  0.0000000E+00  0.1049000E+01 1  0.2000000E+00
 0.7885000E-01  0.0000000E+00  0.1049000E+01 1  0.2000000E+00
 0.7970000E-01  0.0000000E+00  0.1049000E+01 1  0.2000000E+00
 0.8055000E-01  0.0000000E+00  0.1049000E+01 1  0.2000000E+00
 0.8140000E-01  0.0000000E+00  0.1049000E+01 1  0.2000000E+00
 0.8225000E-01  0.0000000E+00  0.1049000E+01 1  0.2000000E+00
 0.8310000E-01  0.0000000E+00  0.1049000E+01 1  0.2000000E+00
 0.8395000E-01  0.0000000E+00  0.1049000E+01 1  0.2000000E+00
 0.8480000E-01  0.0000000E+00  0.1049000E+01 1  0.2000000E+00
 0.8565000E-01  0.0000000E+00  0.1049000E+01 1  0.2000000E+00
 0.8650000E-01  0.0000000E+00  0.1049000E+01 1  0.2000000E+00
 0.8735000E-01  0.0000000E+00  0.1049000E+01 1  0.2000000E+00
 0.8820000E-01  0.0000000E+00  0.1049000E+01 1  0.2000000E+00
 0.8905000E-01  0.0000000E+00  0.1049000E+01 1  0.2000000E+00
 0.8990000E-01  0.0000000E+00  0.1049000E+01 1  0.2000000E+00
 0.9075000E-01  0.0000000E+00  0.1049000E+01 1  0.2000000E+00
 0.9160000E-01  0.0000000E+00  0.1049000E+01 1  0.2000000E+00
 0.9245000E-01  0.0000000E+00  0.1049000E+01 1  0.2000000E+00
 0.9330000E-01  0.0000000E+00  0.1049000E+01 1  0.2000000E+00
 0.9415000E-01  0.0000000E+00  0.1049000E+01 1  0.2000000E+00
 0.9500000E-01  0.0000000E+00  0.1049000E+01 1  0.2000000E+00
# units diff cross section [10^{-38} cm^2/GeV/num_of_active_nucleons (N or Z)]
