# QE from  Nieves et al.,PRC 70,055503 (2004) & arXiv:1106.5374 [hep-ph]
# ein (gev) = 0.200E+00
# units diff cross section [10^{-38} cm^2/GeV
# Tlepton (GeV), dsigma/dTlepton, MA(GeV),  RPA (0/1), Eneutrino (GeV)
 0.1085000E-01  0.1384699E+00  0.1049000E+01 1  0.2000000E+00
 0.1170000E-01  0.1510171E+00  0.1049000E+01 1  0.2000000E+00
 0.1255000E-01  0.1663285E+00  0.1049000E+01 1  0.2000000E+00
 0.1340000E-01  0.1811007E+00  0.1049000E+01 1  0.2000000E+00
 0.1425000E-01  0.1952018E+00  0.1049000E+01 1  0.2000000E+00
 0.1510000E-01  0.2085698E+00  0.1049000E+01 1  0.2000000E+00
 0.1595000E-01  0.2211809E+00  0.1049000E+01 1  0.2000000E+00
 0.1680000E-01  0.2330352E+00  0.1049000E+01 1  0.2000000E+00
 0.1765000E-01  0.2444394E+00  0.1049000E+01 1  0.2000000E+00
 0.1850000E-01  0.2589831E+00  0.1049000E+01 1  0.2000000E+00
 0.1935000E-01  0.2750201E+00  0.1049000E+01 1  0.2000000E+00
 0.2020000E-01  0.2902215E+00  0.1049000E+01 1  0.2000000E+00
 0.2105000E-01  0.3045402E+00  0.1049000E+01 1  0.2000000E+00
 0.2190000E-01  0.3179595E+00  0.1049000E+01 1  0.2000000E+00
 0.2275000E-01  0.3304789E+00  0.1049000E+01 1  0.2000000E+00
 0.2360000E-01  0.3427778E+00  0.1049000E+01 1  0.2000000E+00
 0.2445000E-01  0.3572958E+00  0.1049000E+01 1  0.2000000E+00
 0.2530000E-01  0.3718213E+00  0.1049000E+01 1  0.2000000E+00
 0.2615000E-01  0.3851618E+00  0.1049000E+01 1  0.2000000E+00
 0.2700000E-01  0.3973072E+00  0.1049000E+01 1  0.2000000E+00
 0.2785000E-01  0.4088962E+00  0.1049000E+01 1  0.2000000E+00
 0.2870000E-01  0.4212775E+00  0.1049000E+01 1  0.2000000E+00
 0.2955000E-01  0.4327043E+00  0.1049000E+01 1  0.2000000E+00
 0.3040000E-01  0.4428126E+00  0.1049000E+01 1  0.2000000E+00
 0.3125000E-01  0.4523992E+00  0.1049000E+01 1  0.2000000E+00
 0.3210000E-01  0.4606676E+00  0.1049000E+01 1  0.2000000E+00
 0.3295000E-01  0.4673590E+00  0.1049000E+01 1  0.2000000E+00
 0.3380000E-01  0.4715787E+00  0.1049000E+01 1  0.2000000E+00
 0.3465000E-01  0.4724367E+00  0.1049000E+01 1  0.2000000E+00
 0.3550000E-01  0.4707717E+00  0.1049000E+01 1  0.2000000E+00
 0.3635000E-01  0.4675154E+00  0.1049000E+01 1  0.2000000E+00
 0.3720000E-01  0.4629187E+00  0.1049000E+01 1  0.2000000E+00
 0.3805000E-01  0.4577929E+00  0.1049000E+01 1  0.2000000E+00
 0.3890000E-01  0.4513636E+00  0.1049000E+01 1  0.2000000E+00
 0.3975000E-01  0.4434162E+00  0.1049000E+01 1  0.2000000E+00
 0.4060000E-01  0.4358635E+00  0.1049000E+01 1  0.2000000E+00
 0.4145000E-01  0.4286175E+00  0.1049000E+01 1  0.2000000E+00
 0.4230000E-01  0.4202953E+00  0.1049000E+01 1  0.2000000E+00
 0.4315000E-01  0.4108718E+00  0.1049000E+01 1  0.2000000E+00
 0.4400000E-01  0.4002740E+00  0.1049000E+01 1  0.2000000E+00
 0.4485000E-01  0.3887884E+00  0.1049000E+01 1  0.2000000E+00
 0.4570000E-01  0.3794042E+00  0.1049000E+01 1  0.2000000E+00
 0.4655000E-01  0.3711809E+00  0.1049000E+01 1  0.2000000E+00
 0.4740000E-01  0.3623581E+00  0.1049000E+01 1  0.2000000E+00
 0.4825000E-01  0.3529020E+00  0.1049000E+01 1  0.2000000E+00
 0.4910000E-01  0.3427859E+00  0.1049000E+01 1  0.2000000E+00
 0.4995000E-01  0.3319841E+00  0.1049000E+01 1  0.2000000E+00
 0.5080000E-01  0.3204690E+00  0.1049000E+01 1  0.2000000E+00
 0.5165000E-01  0.3082076E+00  0.1049000E+01 1  0.2000000E+00
 0.5250000E-01  0.2951829E+00  0.1049000E+01 1  0.2000000E+00
 0.5335000E-01  0.2839903E+00  0.1049000E+01 1  0.2000000E+00
 0.5420000E-01  0.2760737E+00  0.1049000E+01 1  0.2000000E+00
 0.5505000E-01  0.2683339E+00  0.1049000E+01 1  0.2000000E+00
 0.5590000E-01  0.2600174E+00  0.1049000E+01 1  0.2000000E+00
 0.5675000E-01  0.2503179E+00  0.1049000E+01 1  0.2000000E+00
 0.5760000E-01  0.2400782E+00  0.1049000E+01 1  0.2000000E+00
 0.5845000E-01  0.2295727E+00  0.1049000E+01 1  0.2000000E+00
 0.5930000E-01  0.2187298E+00  0.1049000E+01 1  0.2000000E+00
 0.6015000E-01  0.2075114E+00  0.1049000E+01 1  0.2000000E+00
 0.6100000E-01  0.1958882E+00  0.1049000E+01 1  0.2000000E+00
 0.6185000E-01  0.1838334E+00  0.1049000E+01 1  0.2000000E+00
 0.6270000E-01  0.1713191E+00  0.1049000E+01 1  0.2000000E+00
 0.6355000E-01  0.1583124E+00  0.1049000E+01 1  0.2000000E+00
 0.6440000E-01  0.1451866E+00  0.1049000E+01 1  0.2000000E+00
 0.6525000E-01  0.1352428E+00  0.1049000E+01 1  0.2000000E+00
 0.6610000E-01  0.1279187E+00  0.1049000E+01 1  0.2000000E+00
 0.6695000E-01  0.1204583E+00  0.1049000E+01 1  0.2000000E+00
 0.6780000E-01  0.1127832E+00  0.1049000E+01 1  0.2000000E+00
 0.6865000E-01  0.1048875E+00  0.1049000E+01 1  0.2000000E+00
 0.6950000E-01  0.9676540E-01  0.1049000E+01 1  0.2000000E+00
 0.7035000E-01  0.8841110E-01  0.1049000E+01 1  0.2000000E+00
 0.7120000E-01  0.7981848E-01  0.1049000E+01 1  0.2000000E+00
 0.7205000E-01  0.7098111E-01  0.1049000E+01 1  0.2000000E+00
 0.7290000E-01  0.6189190E-01  0.1049000E+01 1  0.2000000E+00
 0.7375000E-01  0.5254200E-01  0.1049000E+01 1  0.2000000E+00
 0.7460000E-01  0.4284019E-01  0.1049000E+01 1  0.2000000E+00
 0.7545000E-01  0.3182522E-01  0.1049000E+01 1  0.2000000E+00
 0.7630000E-01  0.1925875E-01  0.1049000E+01 1  0.2000000E+00
 0.7715000E-01  0.5851712E-02  0.1049000E+01 1  0.2000000E+00
 0.7800000E-01  0.0000000E+00  0.1049000E+01 1  0.2000000E+00
 0.7885000E-01  0.0000000E+00  0.1049000E+01 1  0.2000000E+00
 0.7970000E-01  0.0000000E+00  0.1049000E+01 1  0.2000000E+00
 0.8055000E-01  0.0000000E+00  0.1049000E+01 1  0.2000000E+00
 0.8140000E-01  0.0000000E+00  0.1049000E+01 1  0.2000000E+00
 0.8225000E-01  0.0000000E+00  0.1049000E+01 1  0.2000000E+00
 0.8310000E-01  0.0000000E+00  0.1049000E+01 1  0.2000000E+00
 0.8395000E-01  0.0000000E+00  0.1049000E+01 1  0.2000000E+00
 0.8480000E-01  0.0000000E+00  0.1049000E+01 1  0.2000000E+00
 0.8565000E-01  0.0000000E+00  0.1049000E+01 1  0.2000000E+00
 0.8650000E-01  0.0000000E+00  0.1049000E+01 1  0.2000000E+00
 0.8735000E-01  0.0000000E+00  0.1049000E+01 1  0.2000000E+00
 0.8820000E-01  0.0000000E+00  0.1049000E+01 1  0.2000000E+00
 0.8905000E-01  0.0000000E+00  0.1049000E+01 1  0.2000000E+00
 0.8990000E-01  0.0000000E+00  0.1049000E+01 1  0.2000000E+00
 0.9075000E-01  0.0000000E+00  0.1049000E+01 1  0.2000000E+00
 0.9160000E-01  0.0000000E+00  0.1049000E+01 1  0.2000000E+00
 0.9245000E-01  0.0000000E+00  0.1049000E+01 1  0.2000000E+00
 0.9330000E-01  0.0000000E+00  0.1049000E+01 1  0.2000000E+00
 0.9415000E-01  0.0000000E+00  0.1049000E+01 1  0.2000000E+00
 0.9500000E-01  0.0000000E+00  0.1049000E+01 1  0.2000000E+00
# units diff cross section [10^{-38} cm^2/GeV/num_of_active_nucleons (N or Z)]
