# QE from  Nieves et al.,PRC 70,055503 (2004) & arXiv:1106.5374 [hep-ph]
# ein (gev) = 0.100E+01
# units diff cross section [10^{-38} cm^2/GeV
# Tlepton (GeV), dsigma/dTlepton, MA(GeV),  RPA (0/1), Eneutrino (GeV)
 0.1885000E-01  0.0000000E+00  0.1049000E+01 1  0.1000000E+01
 0.2770000E-01  0.0000000E+00  0.1049000E+01 1  0.1000000E+01
 0.3655000E-01  0.0000000E+00  0.1049000E+01 1  0.1000000E+01
 0.4540000E-01  0.0000000E+00  0.1049000E+01 1  0.1000000E+01
 0.5425000E-01  0.0000000E+00  0.1049000E+01 1  0.1000000E+01
 0.6310000E-01  0.0000000E+00  0.1049000E+01 1  0.1000000E+01
 0.7195000E-01  0.0000000E+00  0.1049000E+01 1  0.1000000E+01
 0.8080000E-01  0.0000000E+00  0.1049000E+01 1  0.1000000E+01
 0.8965000E-01  0.0000000E+00  0.1049000E+01 1  0.1000000E+01
 0.9850000E-01  0.0000000E+00  0.1049000E+01 1  0.1000000E+01
 0.1073500E+00  0.0000000E+00  0.1049000E+01 1  0.1000000E+01
 0.1162000E+00  0.0000000E+00  0.1049000E+01 1  0.1000000E+01
 0.1250500E+00  0.0000000E+00  0.1049000E+01 1  0.1000000E+01
 0.1339000E+00  0.0000000E+00  0.1049000E+01 1  0.1000000E+01
 0.1427500E+00  0.0000000E+00  0.1049000E+01 1  0.1000000E+01
 0.1516000E+00  0.0000000E+00  0.1049000E+01 1  0.1000000E+01
 0.1604500E+00  0.0000000E+00  0.1049000E+01 1  0.1000000E+01
 0.1693000E+00  0.0000000E+00  0.1049000E+01 1  0.1000000E+01
 0.1781500E+00  0.0000000E+00  0.1049000E+01 1  0.1000000E+01
 0.1870000E+00  0.0000000E+00  0.1049000E+01 1  0.1000000E+01
 0.1958500E+00  0.0000000E+00  0.1049000E+01 1  0.1000000E+01
 0.2047000E+00  0.0000000E+00  0.1049000E+01 1  0.1000000E+01
 0.2135500E+00  0.0000000E+00  0.1049000E+01 1  0.1000000E+01
 0.2224000E+00  0.0000000E+00  0.1049000E+01 1  0.1000000E+01
 0.2312500E+00  0.7088739E-01  0.1049000E+01 1  0.1000000E+01
 0.2401000E+00  0.5417412E+00  0.1049000E+01 1  0.1000000E+01
 0.2489500E+00  0.1526752E+01  0.1049000E+01 1  0.1000000E+01
 0.2578000E+00  0.2838728E+01  0.1049000E+01 1  0.1000000E+01
 0.2666500E+00  0.4441146E+01  0.1049000E+01 1  0.1000000E+01
 0.2755000E+00  0.6331169E+01  0.1049000E+01 1  0.1000000E+01
 0.2843500E+00  0.8333020E+01  0.1049000E+01 1  0.1000000E+01
 0.2932000E+00  0.1033302E+02  0.1049000E+01 1  0.1000000E+01
 0.3020500E+00  0.1228192E+02  0.1049000E+01 1  0.1000000E+01
 0.3109000E+00  0.1401629E+02  0.1049000E+01 1  0.1000000E+01
 0.3197500E+00  0.1526776E+02  0.1049000E+01 1  0.1000000E+01
 0.3286000E+00  0.1587741E+02  0.1049000E+01 1  0.1000000E+01
 0.3374500E+00  0.1612572E+02  0.1049000E+01 1  0.1000000E+01
 0.3463000E+00  0.1637408E+02  0.1049000E+01 1  0.1000000E+01
 0.3551500E+00  0.1676021E+02  0.1049000E+01 1  0.1000000E+01
 0.3640000E+00  0.1711891E+02  0.1049000E+01 1  0.1000000E+01
 0.3728500E+00  0.1732915E+02  0.1049000E+01 1  0.1000000E+01
 0.3817000E+00  0.1730544E+02  0.1049000E+01 1  0.1000000E+01
 0.3905500E+00  0.1703057E+02  0.1049000E+01 1  0.1000000E+01
 0.3994000E+00  0.1655142E+02  0.1049000E+01 1  0.1000000E+01
 0.4082500E+00  0.1592839E+02  0.1049000E+01 1  0.1000000E+01
 0.4171000E+00  0.1517226E+02  0.1049000E+01 1  0.1000000E+01
 0.4259500E+00  0.1432280E+02  0.1049000E+01 1  0.1000000E+01
 0.4348000E+00  0.1337603E+02  0.1049000E+01 1  0.1000000E+01
 0.4436500E+00  0.1233489E+02  0.1049000E+01 1  0.1000000E+01
 0.4525000E+00  0.1120876E+02  0.1049000E+01 1  0.1000000E+01
 0.4613500E+00  0.1005544E+02  0.1049000E+01 1  0.1000000E+01
 0.4702000E+00  0.8893145E+01  0.1049000E+01 1  0.1000000E+01
 0.4790500E+00  0.7692915E+01  0.1049000E+01 1  0.1000000E+01
 0.4879000E+00  0.6421417E+01  0.1049000E+01 1  0.1000000E+01
 0.4967500E+00  0.5157934E+01  0.1049000E+01 1  0.1000000E+01
 0.5056000E+00  0.3962607E+01  0.1049000E+01 1  0.1000000E+01
 0.5144500E+00  0.2850756E+01  0.1049000E+01 1  0.1000000E+01
 0.5233000E+00  0.1800405E+01  0.1049000E+01 1  0.1000000E+01
 0.5321500E+00  0.8891754E+00  0.1049000E+01 1  0.1000000E+01
 0.5410000E+00  0.2979024E+00  0.1049000E+01 1  0.1000000E+01
 0.5498500E+00  0.3725573E-01  0.1049000E+01 1  0.1000000E+01
 0.5587000E+00  0.0000000E+00  0.1049000E+01 1  0.1000000E+01
 0.5675500E+00  0.0000000E+00  0.1049000E+01 1  0.1000000E+01
 0.5764000E+00  0.0000000E+00  0.1049000E+01 1  0.1000000E+01
 0.5852500E+00  0.0000000E+00  0.1049000E+01 1  0.1000000E+01
 0.5941000E+00  0.0000000E+00  0.1049000E+01 1  0.1000000E+01
 0.6029500E+00  0.0000000E+00  0.1049000E+01 1  0.1000000E+01
 0.6118000E+00  0.0000000E+00  0.1049000E+01 1  0.1000000E+01
 0.6206500E+00  0.0000000E+00  0.1049000E+01 1  0.1000000E+01
 0.6295000E+00  0.0000000E+00  0.1049000E+01 1  0.1000000E+01
 0.6383500E+00  0.0000000E+00  0.1049000E+01 1  0.1000000E+01
 0.6472000E+00  0.0000000E+00  0.1049000E+01 1  0.1000000E+01
 0.6560500E+00  0.0000000E+00  0.1049000E+01 1  0.1000000E+01
 0.6649000E+00  0.0000000E+00  0.1049000E+01 1  0.1000000E+01
 0.6737500E+00  0.0000000E+00  0.1049000E+01 1  0.1000000E+01
 0.6826000E+00  0.0000000E+00  0.1049000E+01 1  0.1000000E+01
 0.6914500E+00  0.0000000E+00  0.1049000E+01 1  0.1000000E+01
 0.7003000E+00  0.0000000E+00  0.1049000E+01 1  0.1000000E+01
 0.7091500E+00  0.0000000E+00  0.1049000E+01 1  0.1000000E+01
 0.7180000E+00  0.0000000E+00  0.1049000E+01 1  0.1000000E+01
 0.7268500E+00  0.0000000E+00  0.1049000E+01 1  0.1000000E+01
 0.7357000E+00  0.0000000E+00  0.1049000E+01 1  0.1000000E+01
 0.7445500E+00  0.0000000E+00  0.1049000E+01 1  0.1000000E+01
 0.7534000E+00  0.0000000E+00  0.1049000E+01 1  0.1000000E+01
 0.7622500E+00  0.0000000E+00  0.1049000E+01 1  0.1000000E+01
 0.7711000E+00  0.0000000E+00  0.1049000E+01 1  0.1000000E+01
 0.7799500E+00  0.0000000E+00  0.1049000E+01 1  0.1000000E+01
 0.7888000E+00  0.0000000E+00  0.1049000E+01 1  0.1000000E+01
 0.7976500E+00  0.0000000E+00  0.1049000E+01 1  0.1000000E+01
 0.8065000E+00  0.0000000E+00  0.1049000E+01 1  0.1000000E+01
 0.8153500E+00  0.0000000E+00  0.1049000E+01 1  0.1000000E+01
 0.8242000E+00  0.0000000E+00  0.1049000E+01 1  0.1000000E+01
 0.8330500E+00  0.0000000E+00  0.1049000E+01 1  0.1000000E+01
 0.8419000E+00  0.0000000E+00  0.1049000E+01 1  0.1000000E+01
 0.8507500E+00  0.0000000E+00  0.1049000E+01 1  0.1000000E+01
 0.8596000E+00  0.0000000E+00  0.1049000E+01 1  0.1000000E+01
 0.8684500E+00  0.0000000E+00  0.1049000E+01 1  0.1000000E+01
 0.8773000E+00  0.0000000E+00  0.1049000E+01 1  0.1000000E+01
 0.8861500E+00  0.0000000E+00  0.1049000E+01 1  0.1000000E+01
 0.8950000E+00  0.0000000E+00  0.1049000E+01 1  0.1000000E+01
# units diff cross section [10^{-38} cm^2/GeV/num_of_active_nucleons (N or Z)]
