# QE from  Nieves et al.,PRC 70,055503 (2004) & arXiv:1106.5374 [hep-ph]
# ein (gev) = 0.200E+00
# units diff cross section [10^{-38} cm^2/GeV
# Tlepton (GeV), dsigma/dTlepton, MA(GeV),  RPA (0/1), Eneutrino (GeV)
 0.1085000E-01  0.5022501E-01  0.1049000E+01 1  0.2000000E+00
 0.1170000E-01  0.6023198E-01  0.1049000E+01 1  0.2000000E+00
 0.1255000E-01  0.6997191E-01  0.1049000E+01 1  0.2000000E+00
 0.1340000E-01  0.7920004E-01  0.1049000E+01 1  0.2000000E+00
 0.1425000E-01  0.8775348E-01  0.1049000E+01 1  0.2000000E+00
 0.1510000E-01  0.9554275E-01  0.1049000E+01 1  0.2000000E+00
 0.1595000E-01  0.1027436E+00  0.1049000E+01 1  0.2000000E+00
 0.1680000E-01  0.1119886E+00  0.1049000E+01 1  0.2000000E+00
 0.1765000E-01  0.1243129E+00  0.1049000E+01 1  0.2000000E+00
 0.1850000E-01  0.1382013E+00  0.1049000E+01 1  0.2000000E+00
 0.1935000E-01  0.1517597E+00  0.1049000E+01 1  0.2000000E+00
 0.2020000E-01  0.1647326E+00  0.1049000E+01 1  0.2000000E+00
 0.2105000E-01  0.1769483E+00  0.1049000E+01 1  0.2000000E+00
 0.2190000E-01  0.1882995E+00  0.1049000E+01 1  0.2000000E+00
 0.2275000E-01  0.1987322E+00  0.1049000E+01 1  0.2000000E+00
 0.2360000E-01  0.2082341E+00  0.1049000E+01 1  0.2000000E+00
 0.2445000E-01  0.2177025E+00  0.1049000E+01 1  0.2000000E+00
 0.2530000E-01  0.2300155E+00  0.1049000E+01 1  0.2000000E+00
 0.2615000E-01  0.2454512E+00  0.1049000E+01 1  0.2000000E+00
 0.2700000E-01  0.2616456E+00  0.1049000E+01 1  0.2000000E+00
 0.2785000E-01  0.2771042E+00  0.1049000E+01 1  0.2000000E+00
 0.2870000E-01  0.2916886E+00  0.1049000E+01 1  0.2000000E+00
 0.2955000E-01  0.3053168E+00  0.1049000E+01 1  0.2000000E+00
 0.3040000E-01  0.3179448E+00  0.1049000E+01 1  0.2000000E+00
 0.3125000E-01  0.3295569E+00  0.1049000E+01 1  0.2000000E+00
 0.3210000E-01  0.3404295E+00  0.1049000E+01 1  0.2000000E+00
 0.3295000E-01  0.3531556E+00  0.1049000E+01 1  0.2000000E+00
 0.3380000E-01  0.3683603E+00  0.1049000E+01 1  0.2000000E+00
 0.3465000E-01  0.3847925E+00  0.1049000E+01 1  0.2000000E+00
 0.3550000E-01  0.4001379E+00  0.1049000E+01 1  0.2000000E+00
 0.3635000E-01  0.4142678E+00  0.1049000E+01 1  0.2000000E+00
 0.3720000E-01  0.4271417E+00  0.1049000E+01 1  0.2000000E+00
 0.3805000E-01  0.4387379E+00  0.1049000E+01 1  0.2000000E+00
 0.3890000E-01  0.4502353E+00  0.1049000E+01 1  0.2000000E+00
 0.3975000E-01  0.4630361E+00  0.1049000E+01 1  0.2000000E+00
 0.4060000E-01  0.4764708E+00  0.1049000E+01 1  0.2000000E+00
 0.4145000E-01  0.4888810E+00  0.1049000E+01 1  0.2000000E+00
 0.4230000E-01  0.4996997E+00  0.1049000E+01 1  0.2000000E+00
 0.4315000E-01  0.5093748E+00  0.1049000E+01 1  0.2000000E+00
 0.4400000E-01  0.5185599E+00  0.1049000E+01 1  0.2000000E+00
 0.4485000E-01  0.5278603E+00  0.1049000E+01 1  0.2000000E+00
 0.4570000E-01  0.5358938E+00  0.1049000E+01 1  0.2000000E+00
 0.4655000E-01  0.5427681E+00  0.1049000E+01 1  0.2000000E+00
 0.4740000E-01  0.5484407E+00  0.1049000E+01 1  0.2000000E+00
 0.4825000E-01  0.5522222E+00  0.1049000E+01 1  0.2000000E+00
 0.4910000E-01  0.5532413E+00  0.1049000E+01 1  0.2000000E+00
 0.4995000E-01  0.5501953E+00  0.1049000E+01 1  0.2000000E+00
 0.5080000E-01  0.5428314E+00  0.1049000E+01 1  0.2000000E+00
 0.5165000E-01  0.5312525E+00  0.1049000E+01 1  0.2000000E+00
 0.5250000E-01  0.5181463E+00  0.1049000E+01 1  0.2000000E+00
 0.5335000E-01  0.5042063E+00  0.1049000E+01 1  0.2000000E+00
 0.5420000E-01  0.4893753E+00  0.1049000E+01 1  0.2000000E+00
 0.5505000E-01  0.4729809E+00  0.1049000E+01 1  0.2000000E+00
 0.5590000E-01  0.4565622E+00  0.1049000E+01 1  0.2000000E+00
 0.5675000E-01  0.4408417E+00  0.1049000E+01 1  0.2000000E+00
 0.5760000E-01  0.4247114E+00  0.1049000E+01 1  0.2000000E+00
 0.5845000E-01  0.4071990E+00  0.1049000E+01 1  0.2000000E+00
 0.5930000E-01  0.3882463E+00  0.1049000E+01 1  0.2000000E+00
 0.6015000E-01  0.3686645E+00  0.1049000E+01 1  0.2000000E+00
 0.6100000E-01  0.3511336E+00  0.1049000E+01 1  0.2000000E+00
 0.6185000E-01  0.3356407E+00  0.1049000E+01 1  0.2000000E+00
 0.6270000E-01  0.3186328E+00  0.1049000E+01 1  0.2000000E+00
 0.6355000E-01  0.2989278E+00  0.1049000E+01 1  0.2000000E+00
 0.6440000E-01  0.2789970E+00  0.1049000E+01 1  0.2000000E+00
 0.6525000E-01  0.2585726E+00  0.1049000E+01 1  0.2000000E+00
 0.6610000E-01  0.2374922E+00  0.1049000E+01 1  0.2000000E+00
 0.6695000E-01  0.2156357E+00  0.1049000E+01 1  0.2000000E+00
 0.6780000E-01  0.1942395E+00  0.1049000E+01 1  0.2000000E+00
 0.6865000E-01  0.1767094E+00  0.1049000E+01 1  0.2000000E+00
 0.6950000E-01  0.1622445E+00  0.1049000E+01 1  0.2000000E+00
 0.7035000E-01  0.1476076E+00  0.1049000E+01 1  0.2000000E+00
 0.7120000E-01  0.1326113E+00  0.1049000E+01 1  0.2000000E+00
 0.7205000E-01  0.1172355E+00  0.1049000E+01 1  0.2000000E+00
 0.7290000E-01  0.1014609E+00  0.1049000E+01 1  0.2000000E+00
 0.7375000E-01  0.8526750E-01  0.1049000E+01 1  0.2000000E+00
 0.7460000E-01  0.6863395E-01  0.1049000E+01 1  0.2000000E+00
 0.7545000E-01  0.5153057E-01  0.1049000E+01 1  0.2000000E+00
 0.7630000E-01  0.3268463E-01  0.1049000E+01 1  0.2000000E+00
 0.7715000E-01  0.1043734E-01  0.1049000E+01 1  0.2000000E+00
 0.7800000E-01  0.0000000E+00  0.1049000E+01 1  0.2000000E+00
 0.7885000E-01  0.0000000E+00  0.1049000E+01 1  0.2000000E+00
 0.7970000E-01  0.0000000E+00  0.1049000E+01 1  0.2000000E+00
 0.8055000E-01  0.0000000E+00  0.1049000E+01 1  0.2000000E+00
 0.8140000E-01  0.0000000E+00  0.1049000E+01 1  0.2000000E+00
 0.8225000E-01  0.0000000E+00  0.1049000E+01 1  0.2000000E+00
 0.8310000E-01  0.0000000E+00  0.1049000E+01 1  0.2000000E+00
 0.8395000E-01  0.0000000E+00  0.1049000E+01 1  0.2000000E+00
 0.8480000E-01  0.0000000E+00  0.1049000E+01 1  0.2000000E+00
 0.8565000E-01  0.0000000E+00  0.1049000E+01 1  0.2000000E+00
 0.8650000E-01  0.0000000E+00  0.1049000E+01 1  0.2000000E+00
 0.8735000E-01  0.0000000E+00  0.1049000E+01 1  0.2000000E+00
 0.8820000E-01  0.0000000E+00  0.1049000E+01 1  0.2000000E+00
 0.8905000E-01  0.0000000E+00  0.1049000E+01 1  0.2000000E+00
 0.8990000E-01  0.0000000E+00  0.1049000E+01 1  0.2000000E+00
 0.9075000E-01  0.0000000E+00  0.1049000E+01 1  0.2000000E+00
 0.9160000E-01  0.0000000E+00  0.1049000E+01 1  0.2000000E+00
 0.9245000E-01  0.0000000E+00  0.1049000E+01 1  0.2000000E+00
 0.9330000E-01  0.0000000E+00  0.1049000E+01 1  0.2000000E+00
 0.9415000E-01  0.0000000E+00  0.1049000E+01 1  0.2000000E+00
 0.9500000E-01  0.0000000E+00  0.1049000E+01 1  0.2000000E+00
# units diff cross section [10^{-38} cm^2/GeV/num_of_active_nucleons (N or Z)]
