# QE from  Nieves et al.,PRC 70,055503 (2004) & arXiv:1106.5374 [hep-ph]
# ein (gev) = 0.100E+01
# units diff cross section [10^{-38} cm^2/GeV
# Tlepton (GeV), dsigma/dTlepton, MA(GeV),  RPA (0/1), Eneutrino (GeV)
 0.1885000E-01  0.0000000E+00  0.1049000E+01 0  0.1000000E+01
 0.2770000E-01  0.0000000E+00  0.1049000E+01 0  0.1000000E+01
 0.3655000E-01  0.0000000E+00  0.1049000E+01 0  0.1000000E+01
 0.4540000E-01  0.0000000E+00  0.1049000E+01 0  0.1000000E+01
 0.5425000E-01  0.0000000E+00  0.1049000E+01 0  0.1000000E+01
 0.6310000E-01  0.0000000E+00  0.1049000E+01 0  0.1000000E+01
 0.7195000E-01  0.0000000E+00  0.1049000E+01 0  0.1000000E+01
 0.8080000E-01  0.0000000E+00  0.1049000E+01 0  0.1000000E+01
 0.8965000E-01  0.0000000E+00  0.1049000E+01 0  0.1000000E+01
 0.9850000E-01  0.0000000E+00  0.1049000E+01 0  0.1000000E+01
 0.1073500E+00  0.0000000E+00  0.1049000E+01 0  0.1000000E+01
 0.1162000E+00  0.0000000E+00  0.1049000E+01 0  0.1000000E+01
 0.1250500E+00  0.0000000E+00  0.1049000E+01 0  0.1000000E+01
 0.1339000E+00  0.0000000E+00  0.1049000E+01 0  0.1000000E+01
 0.1427500E+00  0.0000000E+00  0.1049000E+01 0  0.1000000E+01
 0.1516000E+00  0.0000000E+00  0.1049000E+01 0  0.1000000E+01
 0.1604500E+00  0.0000000E+00  0.1049000E+01 0  0.1000000E+01
 0.1693000E+00  0.0000000E+00  0.1049000E+01 0  0.1000000E+01
 0.1781500E+00  0.0000000E+00  0.1049000E+01 0  0.1000000E+01
 0.1870000E+00  0.0000000E+00  0.1049000E+01 0  0.1000000E+01
 0.1958500E+00  0.0000000E+00  0.1049000E+01 0  0.1000000E+01
 0.2047000E+00  0.0000000E+00  0.1049000E+01 0  0.1000000E+01
 0.2135500E+00  0.0000000E+00  0.1049000E+01 0  0.1000000E+01
 0.2224000E+00  0.0000000E+00  0.1049000E+01 0  0.1000000E+01
 0.2312500E+00  0.1457322E-02  0.1049000E+01 0  0.1000000E+01
 0.2401000E+00  0.1058442E-01  0.1049000E+01 0  0.1000000E+01
 0.2489500E+00  0.2976227E-01  0.1049000E+01 0  0.1000000E+01
 0.2578000E+00  0.5930265E-01  0.1049000E+01 0  0.1000000E+01
 0.2666500E+00  0.9544575E-01  0.1049000E+01 0  0.1000000E+01
 0.2755000E+00  0.1387820E+00  0.1049000E+01 0  0.1000000E+01
 0.2843500E+00  0.1890152E+00  0.1049000E+01 0  0.1000000E+01
 0.2932000E+00  0.2432999E+00  0.1049000E+01 0  0.1000000E+01
 0.3020500E+00  0.3017521E+00  0.1049000E+01 0  0.1000000E+01
 0.3109000E+00  0.3640055E+00  0.1049000E+01 0  0.1000000E+01
 0.3197500E+00  0.4275681E+00  0.1049000E+01 0  0.1000000E+01
 0.3286000E+00  0.4903248E+00  0.1049000E+01 0  0.1000000E+01
 0.3374500E+00  0.5527604E+00  0.1049000E+01 0  0.1000000E+01
 0.3463000E+00  0.6096223E+00  0.1049000E+01 0  0.1000000E+01
 0.3551500E+00  0.6594009E+00  0.1049000E+01 0  0.1000000E+01
 0.3640000E+00  0.6939421E+00  0.1049000E+01 0  0.1000000E+01
 0.3728500E+00  0.7051503E+00  0.1049000E+01 0  0.1000000E+01
 0.3817000E+00  0.6918649E+00  0.1049000E+01 0  0.1000000E+01
 0.3905500E+00  0.6608038E+00  0.1049000E+01 0  0.1000000E+01
 0.3994000E+00  0.6212511E+00  0.1049000E+01 0  0.1000000E+01
 0.4082500E+00  0.5748310E+00  0.1049000E+01 0  0.1000000E+01
 0.4171000E+00  0.5258213E+00  0.1049000E+01 0  0.1000000E+01
 0.4259500E+00  0.4752628E+00  0.1049000E+01 0  0.1000000E+01
 0.4348000E+00  0.4240823E+00  0.1049000E+01 0  0.1000000E+01
 0.4436500E+00  0.3719765E+00  0.1049000E+01 0  0.1000000E+01
 0.4525000E+00  0.3222559E+00  0.1049000E+01 0  0.1000000E+01
 0.4613500E+00  0.2762004E+00  0.1049000E+01 0  0.1000000E+01
 0.4702000E+00  0.2305003E+00  0.1049000E+01 0  0.1000000E+01
 0.4790500E+00  0.1869896E+00  0.1049000E+01 0  0.1000000E+01
 0.4879000E+00  0.1482384E+00  0.1049000E+01 0  0.1000000E+01
 0.4967500E+00  0.1146042E+00  0.1049000E+01 0  0.1000000E+01
 0.5056000E+00  0.8299714E-01  0.1049000E+01 0  0.1000000E+01
 0.5144500E+00  0.5555421E-01  0.1049000E+01 0  0.1000000E+01
 0.5233000E+00  0.3310020E-01  0.1049000E+01 0  0.1000000E+01
 0.5321500E+00  0.1675948E-01  0.1049000E+01 0  0.1000000E+01
 0.5410000E+00  0.5752099E-02  0.1049000E+01 0  0.1000000E+01
 0.5498500E+00  0.1008136E-02  0.1049000E+01 0  0.1000000E+01
 0.5587000E+00  0.0000000E+00  0.1049000E+01 0  0.1000000E+01
 0.5675500E+00  0.0000000E+00  0.1049000E+01 0  0.1000000E+01
 0.5764000E+00  0.0000000E+00  0.1049000E+01 0  0.1000000E+01
 0.5852500E+00  0.0000000E+00  0.1049000E+01 0  0.1000000E+01
 0.5941000E+00  0.0000000E+00  0.1049000E+01 0  0.1000000E+01
 0.6029500E+00  0.0000000E+00  0.1049000E+01 0  0.1000000E+01
 0.6118000E+00  0.0000000E+00  0.1049000E+01 0  0.1000000E+01
 0.6206500E+00  0.0000000E+00  0.1049000E+01 0  0.1000000E+01
 0.6295000E+00  0.0000000E+00  0.1049000E+01 0  0.1000000E+01
 0.6383500E+00  0.0000000E+00  0.1049000E+01 0  0.1000000E+01
 0.6472000E+00  0.0000000E+00  0.1049000E+01 0  0.1000000E+01
 0.6560500E+00  0.0000000E+00  0.1049000E+01 0  0.1000000E+01
 0.6649000E+00  0.0000000E+00  0.1049000E+01 0  0.1000000E+01
 0.6737500E+00  0.0000000E+00  0.1049000E+01 0  0.1000000E+01
 0.6826000E+00  0.0000000E+00  0.1049000E+01 0  0.1000000E+01
 0.6914500E+00  0.0000000E+00  0.1049000E+01 0  0.1000000E+01
 0.7003000E+00  0.0000000E+00  0.1049000E+01 0  0.1000000E+01
 0.7091500E+00  0.0000000E+00  0.1049000E+01 0  0.1000000E+01
 0.7180000E+00  0.0000000E+00  0.1049000E+01 0  0.1000000E+01
 0.7268500E+00  0.0000000E+00  0.1049000E+01 0  0.1000000E+01
 0.7357000E+00  0.0000000E+00  0.1049000E+01 0  0.1000000E+01
 0.7445500E+00  0.0000000E+00  0.1049000E+01 0  0.1000000E+01
 0.7534000E+00  0.0000000E+00  0.1049000E+01 0  0.1000000E+01
 0.7622500E+00  0.0000000E+00  0.1049000E+01 0  0.1000000E+01
 0.7711000E+00  0.0000000E+00  0.1049000E+01 0  0.1000000E+01
 0.7799500E+00  0.0000000E+00  0.1049000E+01 0  0.1000000E+01
 0.7888000E+00  0.0000000E+00  0.1049000E+01 0  0.1000000E+01
 0.7976500E+00  0.0000000E+00  0.1049000E+01 0  0.1000000E+01
 0.8065000E+00  0.0000000E+00  0.1049000E+01 0  0.1000000E+01
 0.8153500E+00  0.0000000E+00  0.1049000E+01 0  0.1000000E+01
 0.8242000E+00  0.0000000E+00  0.1049000E+01 0  0.1000000E+01
 0.8330500E+00  0.0000000E+00  0.1049000E+01 0  0.1000000E+01
 0.8419000E+00  0.0000000E+00  0.1049000E+01 0  0.1000000E+01
 0.8507500E+00  0.0000000E+00  0.1049000E+01 0  0.1000000E+01
 0.8596000E+00  0.0000000E+00  0.1049000E+01 0  0.1000000E+01
 0.8684500E+00  0.0000000E+00  0.1049000E+01 0  0.1000000E+01
 0.8773000E+00  0.0000000E+00  0.1049000E+01 0  0.1000000E+01
 0.8861500E+00  0.0000000E+00  0.1049000E+01 0  0.1000000E+01
 0.8950000E+00  0.0000000E+00  0.1049000E+01 0  0.1000000E+01
# units diff cross section [10^{-38} cm^2/GeV/num_of_active_nucleons (N or Z)]
