# QE from  Nieves et al.,PRC 70,055503 (2004) & arXiv:1106.5374 [hep-ph]
# ein (gev) = 0.500E+01
# units diff cross section [10^{-38} cm^2/GeV
# Tlepton (GeV), dsigma/dTlepton, MA(GeV),  RPA (0/1), Eneutrino (GeV)
 0.5885000E-01  0.0000000E+00  0.1049000E+01 1  0.5000000E+01
 0.1077000E+00  0.0000000E+00  0.1049000E+01 1  0.5000000E+01
 0.1565500E+00  0.0000000E+00  0.1049000E+01 1  0.5000000E+01
 0.2054000E+00  0.0000000E+00  0.1049000E+01 1  0.5000000E+01
 0.2542500E+00  0.6463406E-03  0.1049000E+01 1  0.5000000E+01
 0.3031000E+00  0.3157625E-02  0.1049000E+01 1  0.5000000E+01
 0.3519500E+00  0.6313712E-02  0.1049000E+01 1  0.5000000E+01
 0.4008000E+00  0.8080915E-02  0.1049000E+01 1  0.5000000E+01
 0.4496500E+00  0.8806961E-02  0.1049000E+01 1  0.5000000E+01
 0.4985000E+00  0.9180248E-02  0.1049000E+01 1  0.5000000E+01
 0.5473500E+00  0.9543220E-02  0.1049000E+01 1  0.5000000E+01
 0.5962000E+00  0.9916257E-02  0.1049000E+01 1  0.5000000E+01
 0.6450500E+00  0.1032208E-01  0.1049000E+01 1  0.5000000E+01
 0.6939000E+00  0.1073781E-01  0.1049000E+01 1  0.5000000E+01
 0.7427500E+00  0.1118233E-01  0.1049000E+01 1  0.5000000E+01
 0.7916000E+00  0.1165327E-01  0.1049000E+01 1  0.5000000E+01
 0.8404500E+00  0.1212525E-01  0.1049000E+01 1  0.5000000E+01
 0.8893000E+00  0.1263057E-01  0.1049000E+01 1  0.5000000E+01
 0.9381500E+00  0.1316681E-01  0.1049000E+01 1  0.5000000E+01
 0.9870000E+00  0.1373333E-01  0.1049000E+01 1  0.5000000E+01
 0.1035850E+01  0.1435527E-01  0.1049000E+01 1  0.5000000E+01
 0.1084700E+01  0.1500644E-01  0.1049000E+01 1  0.5000000E+01
 0.1133550E+01  0.1568586E-01  0.1049000E+01 1  0.5000000E+01
 0.1182400E+01  0.1639625E-01  0.1049000E+01 1  0.5000000E+01
 0.1231250E+01  0.1717049E-01  0.1049000E+01 1  0.5000000E+01
 0.1280100E+01  0.1799038E-01  0.1049000E+01 1  0.5000000E+01
 0.1328950E+01  0.1883108E-01  0.1049000E+01 1  0.5000000E+01
 0.1377800E+01  0.1968296E-01  0.1049000E+01 1  0.5000000E+01
 0.1426650E+01  0.2057927E-01  0.1049000E+01 1  0.5000000E+01
 0.1475500E+01  0.2168264E-01  0.1049000E+01 1  0.5000000E+01
 0.1524350E+01  0.2282476E-01  0.1049000E+01 1  0.5000000E+01
 0.1573200E+01  0.2392491E-01  0.1049000E+01 1  0.5000000E+01
 0.1622050E+01  0.2507343E-01  0.1049000E+01 1  0.5000000E+01
 0.1670900E+01  0.2643634E-01  0.1049000E+01 1  0.5000000E+01
 0.1719750E+01  0.2787919E-01  0.1049000E+01 1  0.5000000E+01
 0.1768600E+01  0.2923970E-01  0.1049000E+01 1  0.5000000E+01
 0.1817450E+01  0.3066784E-01  0.1049000E+01 1  0.5000000E+01
 0.1866300E+01  0.3277419E-01  0.1049000E+01 1  0.5000000E+01
 0.1915150E+01  0.3436166E-01  0.1049000E+01 1  0.5000000E+01
 0.1964000E+01  0.3613092E-01  0.1049000E+01 1  0.5000000E+01
 0.2012850E+01  0.3871453E-01  0.1049000E+01 1  0.5000000E+01
 0.2061700E+01  0.4077223E-01  0.1049000E+01 1  0.5000000E+01
 0.2110550E+01  0.4288911E-01  0.1049000E+01 1  0.5000000E+01
 0.2159400E+01  0.4522239E-01  0.1049000E+01 1  0.5000000E+01
 0.2208250E+01  0.4858635E-01  0.1049000E+01 1  0.5000000E+01
 0.2257100E+01  0.5141922E-01  0.1049000E+01 1  0.5000000E+01
 0.2305950E+01  0.5481091E-01  0.1049000E+01 1  0.5000000E+01
 0.2354800E+01  0.5843422E-01  0.1049000E+01 1  0.5000000E+01
 0.2403650E+01  0.6205379E-01  0.1049000E+01 1  0.5000000E+01
 0.2452500E+01  0.6510303E-01  0.1049000E+01 1  0.5000000E+01
 0.2501350E+01  0.7017210E-01  0.1049000E+01 1  0.5000000E+01
 0.2550200E+01  0.7583534E-01  0.1049000E+01 1  0.5000000E+01
 0.2599050E+01  0.8293704E-01  0.1049000E+01 1  0.5000000E+01
 0.2647900E+01  0.8669851E-01  0.1049000E+01 1  0.5000000E+01
 0.2696750E+01  0.8999779E-01  0.1049000E+01 1  0.5000000E+01
 0.2745600E+01  0.9774196E-01  0.1049000E+01 1  0.5000000E+01
 0.2794450E+01  0.1077953E+00  0.1049000E+01 1  0.5000000E+01
 0.2843300E+01  0.1180091E+00  0.1049000E+01 1  0.5000000E+01
 0.2892150E+01  0.1285725E+00  0.1049000E+01 1  0.5000000E+01
 0.2941000E+01  0.1345197E+00  0.1049000E+01 1  0.5000000E+01
 0.2989850E+01  0.1423107E+00  0.1049000E+01 1  0.5000000E+01
 0.3038700E+01  0.1524555E+00  0.1049000E+01 1  0.5000000E+01
 0.3087550E+01  0.1700592E+00  0.1049000E+01 1  0.5000000E+01
 0.3136400E+01  0.1948955E+00  0.1049000E+01 1  0.5000000E+01
 0.3185250E+01  0.2106680E+00  0.1049000E+01 1  0.5000000E+01
 0.3234100E+01  0.2254102E+00  0.1049000E+01 1  0.5000000E+01
 0.3282950E+01  0.2425945E+00  0.1049000E+01 1  0.5000000E+01
 0.3331800E+01  0.2625393E+00  0.1049000E+01 1  0.5000000E+01
 0.3380650E+01  0.2869806E+00  0.1049000E+01 1  0.5000000E+01
 0.3429500E+01  0.3297565E+00  0.1049000E+01 1  0.5000000E+01
 0.3478350E+01  0.3745513E+00  0.1049000E+01 1  0.5000000E+01
 0.3527200E+01  0.4071502E+00  0.1049000E+01 1  0.5000000E+01
 0.3576050E+01  0.4538642E+00  0.1049000E+01 1  0.5000000E+01
 0.3624900E+01  0.5047150E+00  0.1049000E+01 1  0.5000000E+01
 0.3673750E+01  0.5676696E+00  0.1049000E+01 1  0.5000000E+01
 0.3722600E+01  0.6470062E+00  0.1049000E+01 1  0.5000000E+01
 0.3771450E+01  0.7159251E+00  0.1049000E+01 1  0.5000000E+01
 0.3820300E+01  0.7820737E+00  0.1049000E+01 1  0.5000000E+01
 0.3869150E+01  0.8576577E+00  0.1049000E+01 1  0.5000000E+01
 0.3918000E+01  0.1007575E+01  0.1049000E+01 1  0.5000000E+01
 0.3966850E+01  0.1258716E+01  0.1049000E+01 1  0.5000000E+01
 0.4015700E+01  0.1562677E+01  0.1049000E+01 1  0.5000000E+01
 0.4064550E+01  0.1798675E+01  0.1049000E+01 1  0.5000000E+01
 0.4113400E+01  0.1974548E+01  0.1049000E+01 1  0.5000000E+01
 0.4162250E+01  0.1991849E+01  0.1049000E+01 1  0.5000000E+01
 0.4211100E+01  0.1969242E+01  0.1049000E+01 1  0.5000000E+01
 0.4259950E+01  0.2366487E+01  0.1049000E+01 1  0.5000000E+01
 0.4308800E+01  0.3325947E+01  0.1049000E+01 1  0.5000000E+01
 0.4357650E+01  0.4353995E+01  0.1049000E+01 1  0.5000000E+01
 0.4406500E+01  0.5094194E+01  0.1049000E+01 1  0.5000000E+01
 0.4455350E+01  0.5583044E+01  0.1049000E+01 1  0.5000000E+01
 0.4504200E+01  0.4913128E+01  0.1049000E+01 1  0.5000000E+01
 0.4553050E+01  0.4965687E+01  0.1049000E+01 1  0.5000000E+01
 0.4601900E+01  0.6801885E+01  0.1049000E+01 1  0.5000000E+01
 0.4650750E+01  0.1050111E+02  0.1049000E+01 1  0.5000000E+01
 0.4699600E+01  0.1265744E+02  0.1049000E+01 1  0.5000000E+01
 0.4748450E+01  0.8413318E+01  0.1049000E+01 1  0.5000000E+01
 0.4797300E+01  0.1194561E+02  0.1049000E+01 1  0.5000000E+01
 0.4846150E+01  0.1414907E+02  0.1049000E+01 1  0.5000000E+01
 0.4895000E+01  0.0000000E+00  0.1049000E+01 1  0.5000000E+01
# units diff cross section [10^{-38} cm^2/GeV/num_of_active_nucleons (N or Z)]
