# QE from  Nieves et al.,PRC 70,055503 (2004) & arXiv:1106.5374 [hep-ph]
# ein (gev) = 0.200E+00
# units diff cross section [10^{-38} cm^2/GeV
# Tlepton (GeV), dsigma/dTlepton, MA(GeV),  RPA (0/1), Eneutrino (GeV)
 0.1085000E-01  0.1338822E+00  0.1049000E+01 0  0.2000000E+00
 0.1170000E-01  0.1502794E+00  0.1049000E+01 0  0.2000000E+00
 0.1255000E-01  0.1680289E+00  0.1049000E+01 0  0.2000000E+00
 0.1340000E-01  0.1899465E+00  0.1049000E+01 0  0.2000000E+00
 0.1425000E-01  0.2122096E+00  0.1049000E+01 0  0.2000000E+00
 0.1510000E-01  0.2344251E+00  0.1049000E+01 0  0.2000000E+00
 0.1595000E-01  0.2565406E+00  0.1049000E+01 0  0.2000000E+00
 0.1680000E-01  0.2785087E+00  0.1049000E+01 0  0.2000000E+00
 0.1765000E-01  0.3002861E+00  0.1049000E+01 0  0.2000000E+00
 0.1850000E-01  0.3219975E+00  0.1049000E+01 0  0.2000000E+00
 0.1935000E-01  0.3467949E+00  0.1049000E+01 0  0.2000000E+00
 0.2020000E-01  0.3733769E+00  0.1049000E+01 0  0.2000000E+00
 0.2105000E-01  0.3994844E+00  0.1049000E+01 0  0.2000000E+00
 0.2190000E-01  0.4250693E+00  0.1049000E+01 0  0.2000000E+00
 0.2275000E-01  0.4500865E+00  0.1049000E+01 0  0.2000000E+00
 0.2360000E-01  0.4744938E+00  0.1049000E+01 0  0.2000000E+00
 0.2445000E-01  0.4992333E+00  0.1049000E+01 0  0.2000000E+00
 0.2530000E-01  0.5262345E+00  0.1049000E+01 0  0.2000000E+00
 0.2615000E-01  0.5528953E+00  0.1049000E+01 0  0.2000000E+00
 0.2700000E-01  0.5784911E+00  0.1049000E+01 0  0.2000000E+00
 0.2785000E-01  0.6029751E+00  0.1049000E+01 0  0.2000000E+00
 0.2870000E-01  0.6274792E+00  0.1049000E+01 0  0.2000000E+00
 0.2955000E-01  0.6524422E+00  0.1049000E+01 0  0.2000000E+00
 0.3040000E-01  0.6759497E+00  0.1049000E+01 0  0.2000000E+00
 0.3125000E-01  0.6984452E+00  0.1049000E+01 0  0.2000000E+00
 0.3210000E-01  0.7200683E+00  0.1049000E+01 0  0.2000000E+00
 0.3295000E-01  0.7400182E+00  0.1049000E+01 0  0.2000000E+00
 0.3380000E-01  0.7578986E+00  0.1049000E+01 0  0.2000000E+00
 0.3465000E-01  0.7724073E+00  0.1049000E+01 0  0.2000000E+00
 0.3550000E-01  0.7834289E+00  0.1049000E+01 0  0.2000000E+00
 0.3635000E-01  0.7921242E+00  0.1049000E+01 0  0.2000000E+00
 0.3720000E-01  0.7987969E+00  0.1049000E+01 0  0.2000000E+00
 0.3805000E-01  0.8040780E+00  0.1049000E+01 0  0.2000000E+00
 0.3890000E-01  0.8081822E+00  0.1049000E+01 0  0.2000000E+00
 0.3975000E-01  0.8094765E+00  0.1049000E+01 0  0.2000000E+00
 0.4060000E-01  0.8083956E+00  0.1049000E+01 0  0.2000000E+00
 0.4145000E-01  0.8075874E+00  0.1049000E+01 0  0.2000000E+00
 0.4230000E-01  0.8055147E+00  0.1049000E+01 0  0.2000000E+00
 0.4315000E-01  0.8017112E+00  0.1049000E+01 0  0.2000000E+00
 0.4400000E-01  0.7961557E+00  0.1049000E+01 0  0.2000000E+00
 0.4485000E-01  0.7868494E+00  0.1049000E+01 0  0.2000000E+00
 0.4570000E-01  0.7769087E+00  0.1049000E+01 0  0.2000000E+00
 0.4655000E-01  0.7688294E+00  0.1049000E+01 0  0.2000000E+00
 0.4740000E-01  0.7601309E+00  0.1049000E+01 0  0.2000000E+00
 0.4825000E-01  0.7501259E+00  0.1049000E+01 0  0.2000000E+00
 0.4910000E-01  0.7388045E+00  0.1049000E+01 0  0.2000000E+00
 0.4995000E-01  0.7261573E+00  0.1049000E+01 0  0.2000000E+00
 0.5080000E-01  0.7121752E+00  0.1049000E+01 0  0.2000000E+00
 0.5165000E-01  0.6968494E+00  0.1049000E+01 0  0.2000000E+00
 0.5250000E-01  0.6801716E+00  0.1049000E+01 0  0.2000000E+00
 0.5335000E-01  0.6626412E+00  0.1049000E+01 0  0.2000000E+00
 0.5420000E-01  0.6480612E+00  0.1049000E+01 0  0.2000000E+00
 0.5505000E-01  0.6356747E+00  0.1049000E+01 0  0.2000000E+00
 0.5590000E-01  0.6209494E+00  0.1049000E+01 0  0.2000000E+00
 0.5675000E-01  0.6024788E+00  0.1049000E+01 0  0.2000000E+00
 0.5760000E-01  0.5829657E+00  0.1049000E+01 0  0.2000000E+00
 0.5845000E-01  0.5624896E+00  0.1049000E+01 0  0.2000000E+00
 0.5930000E-01  0.5410486E+00  0.1049000E+01 0  0.2000000E+00
 0.6015000E-01  0.5186406E+00  0.1049000E+01 0  0.2000000E+00
 0.6100000E-01  0.4952637E+00  0.1049000E+01 0  0.2000000E+00
 0.6185000E-01  0.4709163E+00  0.1049000E+01 0  0.2000000E+00
 0.6270000E-01  0.4455966E+00  0.1049000E+01 0  0.2000000E+00
 0.6355000E-01  0.4193034E+00  0.1049000E+01 0  0.2000000E+00
 0.6440000E-01  0.3920351E+00  0.1049000E+01 0  0.2000000E+00
 0.6525000E-01  0.3655919E+00  0.1049000E+01 0  0.2000000E+00
 0.6610000E-01  0.3440577E+00  0.1049000E+01 0  0.2000000E+00
 0.6695000E-01  0.3238526E+00  0.1049000E+01 0  0.2000000E+00
 0.6780000E-01  0.3030333E+00  0.1049000E+01 0  0.2000000E+00
 0.6865000E-01  0.2816002E+00  0.1049000E+01 0  0.2000000E+00
 0.6950000E-01  0.2595537E+00  0.1049000E+01 0  0.2000000E+00
 0.7035000E-01  0.2368941E+00  0.1049000E+01 0  0.2000000E+00
 0.7120000E-01  0.2136219E+00  0.1049000E+01 0  0.2000000E+00
 0.7205000E-01  0.1897376E+00  0.1049000E+01 0  0.2000000E+00
 0.7290000E-01  0.1652417E+00  0.1049000E+01 0  0.2000000E+00
 0.7375000E-01  0.1400686E+00  0.1049000E+01 0  0.2000000E+00
 0.7460000E-01  0.1122942E+00  0.1049000E+01 0  0.2000000E+00
 0.7545000E-01  0.8114150E-01  0.1049000E+01 0  0.2000000E+00
 0.7630000E-01  0.4817891E-01  0.1049000E+01 0  0.2000000E+00
 0.7715000E-01  0.1459625E-01  0.1049000E+01 0  0.2000000E+00
 0.7800000E-01  0.0000000E+00  0.1049000E+01 0  0.2000000E+00
 0.7885000E-01  0.0000000E+00  0.1049000E+01 0  0.2000000E+00
 0.7970000E-01  0.0000000E+00  0.1049000E+01 0  0.2000000E+00
 0.8055000E-01  0.0000000E+00  0.1049000E+01 0  0.2000000E+00
 0.8140000E-01  0.0000000E+00  0.1049000E+01 0  0.2000000E+00
 0.8225000E-01  0.0000000E+00  0.1049000E+01 0  0.2000000E+00
 0.8310000E-01  0.0000000E+00  0.1049000E+01 0  0.2000000E+00
 0.8395000E-01  0.0000000E+00  0.1049000E+01 0  0.2000000E+00
 0.8480000E-01  0.0000000E+00  0.1049000E+01 0  0.2000000E+00
 0.8565000E-01  0.0000000E+00  0.1049000E+01 0  0.2000000E+00
 0.8650000E-01  0.0000000E+00  0.1049000E+01 0  0.2000000E+00
 0.8735000E-01  0.0000000E+00  0.1049000E+01 0  0.2000000E+00
 0.8820000E-01  0.0000000E+00  0.1049000E+01 0  0.2000000E+00
 0.8905000E-01  0.0000000E+00  0.1049000E+01 0  0.2000000E+00
 0.8990000E-01  0.0000000E+00  0.1049000E+01 0  0.2000000E+00
 0.9075000E-01  0.0000000E+00  0.1049000E+01 0  0.2000000E+00
 0.9160000E-01  0.0000000E+00  0.1049000E+01 0  0.2000000E+00
 0.9245000E-01  0.0000000E+00  0.1049000E+01 0  0.2000000E+00
 0.9330000E-01  0.0000000E+00  0.1049000E+01 0  0.2000000E+00
 0.9415000E-01  0.0000000E+00  0.1049000E+01 0  0.2000000E+00
 0.9500000E-01  0.0000000E+00  0.1049000E+01 0  0.2000000E+00
# units diff cross section [10^{-38} cm^2/GeV/num_of_active_nucleons (N or Z)]
