# QE from  Nieves et al.,PRC 70,055503 (2004) & arXiv:1106.5374 [hep-ph]
# ein (gev) = 0.200E+00
# units diff cross section [10^{-38} cm^2/GeV
# Tlepton (GeV), dsigma/dTlepton, MA(GeV),  RPA (0/1), Eneutrino (GeV)
 0.1085000E-01  0.0000000E+00  0.1049000E+01 0  0.2000000E+00
 0.1170000E-01  0.0000000E+00  0.1049000E+01 0  0.2000000E+00
 0.1255000E-01  0.0000000E+00  0.1049000E+01 0  0.2000000E+00
 0.1340000E-01  0.0000000E+00  0.1049000E+01 0  0.2000000E+00
 0.1425000E-01  0.0000000E+00  0.1049000E+01 0  0.2000000E+00
 0.1510000E-01  0.0000000E+00  0.1049000E+01 0  0.2000000E+00
 0.1595000E-01  0.0000000E+00  0.1049000E+01 0  0.2000000E+00
 0.1680000E-01  0.0000000E+00  0.1049000E+01 0  0.2000000E+00
 0.1765000E-01  0.0000000E+00  0.1049000E+01 0  0.2000000E+00
 0.1850000E-01  0.0000000E+00  0.1049000E+01 0  0.2000000E+00
 0.1935000E-01  0.0000000E+00  0.1049000E+01 0  0.2000000E+00
 0.2020000E-01  0.0000000E+00  0.1049000E+01 0  0.2000000E+00
 0.2105000E-01  0.0000000E+00  0.1049000E+01 0  0.2000000E+00
 0.2190000E-01  0.0000000E+00  0.1049000E+01 0  0.2000000E+00
 0.2275000E-01  0.0000000E+00  0.1049000E+01 0  0.2000000E+00
 0.2360000E-01  0.0000000E+00  0.1049000E+01 0  0.2000000E+00
 0.2445000E-01  0.0000000E+00  0.1049000E+01 0  0.2000000E+00
 0.2530000E-01  0.0000000E+00  0.1049000E+01 0  0.2000000E+00
 0.2615000E-01  0.0000000E+00  0.1049000E+01 0  0.2000000E+00
 0.2700000E-01  0.5648882E-02  0.1049000E+01 0  0.2000000E+00
 0.2785000E-01  0.4429151E-01  0.1049000E+01 0  0.2000000E+00
 0.2870000E-01  0.1232480E+00  0.1049000E+01 0  0.2000000E+00
 0.2955000E-01  0.2504630E+00  0.1049000E+01 0  0.2000000E+00
 0.3040000E-01  0.4410912E+00  0.1049000E+01 0  0.2000000E+00
 0.3125000E-01  0.6879879E+00  0.1049000E+01 0  0.2000000E+00
 0.3210000E-01  0.9673336E+00  0.1049000E+01 0  0.2000000E+00
 0.3295000E-01  0.1276176E+01  0.1049000E+01 0  0.2000000E+00
 0.3380000E-01  0.1605099E+01  0.1049000E+01 0  0.2000000E+00
 0.3465000E-01  0.1943279E+01  0.1049000E+01 0  0.2000000E+00
 0.3550000E-01  0.2290327E+01  0.1049000E+01 0  0.2000000E+00
 0.3635000E-01  0.2646594E+01  0.1049000E+01 0  0.2000000E+00
 0.3720000E-01  0.3030256E+01  0.1049000E+01 0  0.2000000E+00
 0.3805000E-01  0.3449239E+01  0.1049000E+01 0  0.2000000E+00
 0.3890000E-01  0.3903493E+01  0.1049000E+01 0  0.2000000E+00
 0.3975000E-01  0.4392969E+01  0.1049000E+01 0  0.2000000E+00
 0.4060000E-01  0.4914894E+01  0.1049000E+01 0  0.2000000E+00
 0.4145000E-01  0.5449046E+01  0.1049000E+01 0  0.2000000E+00
 0.4230000E-01  0.5990753E+01  0.1049000E+01 0  0.2000000E+00
 0.4315000E-01  0.6539348E+01  0.1049000E+01 0  0.2000000E+00
 0.4400000E-01  0.7094155E+01  0.1049000E+01 0  0.2000000E+00
 0.4485000E-01  0.7654487E+01  0.1049000E+01 0  0.2000000E+00
 0.4570000E-01  0.8219648E+01  0.1049000E+01 0  0.2000000E+00
 0.4655000E-01  0.8788935E+01  0.1049000E+01 0  0.2000000E+00
 0.4740000E-01  0.9361638E+01  0.1049000E+01 0  0.2000000E+00
 0.4825000E-01  0.9941344E+01  0.1049000E+01 0  0.2000000E+00
 0.4910000E-01  0.1054902E+02  0.1049000E+01 0  0.2000000E+00
 0.4995000E-01  0.1118691E+02  0.1049000E+01 0  0.2000000E+00
 0.5080000E-01  0.1185423E+02  0.1049000E+01 0  0.2000000E+00
 0.5165000E-01  0.1255011E+02  0.1049000E+01 0  0.2000000E+00
 0.5250000E-01  0.1325803E+02  0.1049000E+01 0  0.2000000E+00
 0.5335000E-01  0.1396337E+02  0.1049000E+01 0  0.2000000E+00
 0.5420000E-01  0.1466515E+02  0.1049000E+01 0  0.2000000E+00
 0.5505000E-01  0.1536238E+02  0.1049000E+01 0  0.2000000E+00
 0.5590000E-01  0.1605406E+02  0.1049000E+01 0  0.2000000E+00
 0.5675000E-01  0.1673922E+02  0.1049000E+01 0  0.2000000E+00
 0.5760000E-01  0.1742113E+02  0.1049000E+01 0  0.2000000E+00
 0.5845000E-01  0.1811694E+02  0.1049000E+01 0  0.2000000E+00
 0.5930000E-01  0.1882719E+02  0.1049000E+01 0  0.2000000E+00
 0.6015000E-01  0.1955028E+02  0.1049000E+01 0  0.2000000E+00
 0.6100000E-01  0.2028197E+02  0.1049000E+01 0  0.2000000E+00
 0.6185000E-01  0.2100159E+02  0.1049000E+01 0  0.2000000E+00
 0.6270000E-01  0.2170260E+02  0.1049000E+01 0  0.2000000E+00
 0.6355000E-01  0.2227695E+02  0.1049000E+01 0  0.2000000E+00
 0.6440000E-01  0.2267573E+02  0.1049000E+01 0  0.2000000E+00
 0.6525000E-01  0.2302929E+02  0.1049000E+01 0  0.2000000E+00
 0.6610000E-01  0.2337378E+02  0.1049000E+01 0  0.2000000E+00
 0.6695000E-01  0.2370292E+02  0.1049000E+01 0  0.2000000E+00
 0.6780000E-01  0.2388547E+02  0.1049000E+01 0  0.2000000E+00
 0.6865000E-01  0.2400654E+02  0.1049000E+01 0  0.2000000E+00
 0.6950000E-01  0.2410855E+02  0.1049000E+01 0  0.2000000E+00
 0.7035000E-01  0.2418266E+02  0.1049000E+01 0  0.2000000E+00
 0.7120000E-01  0.2422393E+02  0.1049000E+01 0  0.2000000E+00
 0.7205000E-01  0.2422103E+02  0.1049000E+01 0  0.2000000E+00
 0.7290000E-01  0.2416412E+02  0.1049000E+01 0  0.2000000E+00
 0.7375000E-01  0.2404525E+02  0.1049000E+01 0  0.2000000E+00
 0.7460000E-01  0.2386195E+02  0.1049000E+01 0  0.2000000E+00
 0.7545000E-01  0.2361451E+02  0.1049000E+01 0  0.2000000E+00
 0.7630000E-01  0.2330938E+02  0.1049000E+01 0  0.2000000E+00
 0.7715000E-01  0.2295334E+02  0.1049000E+01 0  0.2000000E+00
 0.7800000E-01  0.2240008E+02  0.1049000E+01 0  0.2000000E+00
 0.7885000E-01  0.2179008E+02  0.1049000E+01 0  0.2000000E+00
 0.7970000E-01  0.2115334E+02  0.1049000E+01 0  0.2000000E+00
 0.8055000E-01  0.2048867E+02  0.1049000E+01 0  0.2000000E+00
 0.8140000E-01  0.1979629E+02  0.1049000E+01 0  0.2000000E+00
 0.8225000E-01  0.1906383E+02  0.1049000E+01 0  0.2000000E+00
 0.8310000E-01  0.1831184E+02  0.1049000E+01 0  0.2000000E+00
 0.8395000E-01  0.1755320E+02  0.1049000E+01 0  0.2000000E+00
 0.8480000E-01  0.1678627E+02  0.1049000E+01 0  0.2000000E+00
 0.8565000E-01  0.1598661E+02  0.1049000E+01 0  0.2000000E+00
 0.8650000E-01  0.1515128E+02  0.1049000E+01 0  0.2000000E+00
 0.8735000E-01  0.1428019E+02  0.1049000E+01 0  0.2000000E+00
 0.8820000E-01  0.1337324E+02  0.1049000E+01 0  0.2000000E+00
 0.8905000E-01  0.1245063E+02  0.1049000E+01 0  0.2000000E+00
 0.8990000E-01  0.1154373E+02  0.1049000E+01 0  0.2000000E+00
 0.9075000E-01  0.1059278E+02  0.1049000E+01 0  0.2000000E+00
 0.9160000E-01  0.9567252E+01  0.1049000E+01 0  0.2000000E+00
 0.9245000E-01  0.0000000E+00  0.1049000E+01 0  0.2000000E+00
 0.9330000E-01  0.0000000E+00  0.1049000E+01 0  0.2000000E+00
 0.9415000E-01  0.0000000E+00  0.1049000E+01 0  0.2000000E+00
 0.9500000E-01  0.0000000E+00  0.1049000E+01 0  0.2000000E+00
# units diff cross section [10^{-38} cm^2/GeV/num_of_active_nucleons (N or Z)]
